10	575
10.01	561
10.02	528
10.03	554
10.04	578
10.05	575
10.06	544
10.07	531
10.08	511
10.09	528
10.1	524
10.11	520
10.12	514
10.13	539
10.14	540
10.15	564
10.16	555
10.17	555
10.18	571
10.19	542
10.2	546
10.21	532
10.22	535
10.23	531
10.24	530
10.25	573
10.26	573
10.27	570
10.28	550
10.29	528
10.3	527
10.31	552
10.32	537
10.33	531
10.34	538
10.35	536
10.36	510
10.37	531
10.38	535
10.39	520
10.4	535
10.41	552
10.42	554
10.43	544
10.44	530
10.45	543
10.46	536
10.47	529
10.48	527
10.49	551
10.5	564
10.51	544
10.52	542
10.53	505
10.54	531
10.55	552
10.56	554
10.57	533
10.58	540
10.59	541
10.6	545
10.61	578
10.62	576
10.63	550
10.64	553
10.65	563
10.66	552
10.67	544
10.68	547
10.69	559
10.7	556
10.71	562
10.72	553
10.73	520
10.74	549
10.75	585
10.76	581
10.77	537
10.78	535
10.79	567
10.8	571
10.81	561
10.82	545
10.83	517
10.84	530
10.85	538
10.86	539
10.87	556
10.88	529
10.89	550
10.9	555
10.91	563
10.92	544
10.93	549
10.94	573
10.95	547
10.96	550
10.97	523
10.98	521
10.99	545
11	524
11.01	544
11.02	516
11.03	524
11.04	561
11.05	555
11.06	562
11.07	580
11.08	569
11.09	534
11.1	526
11.11	540
11.12	539
11.13	503
11.14	523
11.15	508
11.16	542
11.17	566
11.18	527
11.19	526
11.2	550
11.21	558
11.22	581
11.23	540
11.24	530
11.25	519
11.26	530
11.27	531
11.28	527
11.29	536
11.3	556
11.31	561
11.32	535
11.33	578
11.34	559
11.35	523
11.36	527
11.37	544
11.38	529
11.39	552
11.4	559
11.41	542
11.42	574
11.43	553
11.44	555
11.45	544
11.46	585
11.47	583
11.48	584
11.49	590
11.5	576
11.51	573
11.52	542
11.53	555
11.54	594
11.55	555
11.56	552
11.57	568
11.58	560
11.59	545
11.6	551
11.61	552
11.62	546
11.63	538
11.64	555
11.65	576
11.66	557
11.67	553
11.68	556
11.69	555
11.7	552
11.71	544
11.72	542
11.73	541
11.74	543
11.75	554
11.76	557
11.77	535
11.78	569
11.79	536
11.8	566
11.81	555
11.82	536
11.83	553
11.84	584
11.85	551
11.86	512
11.87	525
11.88	555
11.89	552
11.9	555
11.91	573
11.92	553
11.93	536
11.94	567
11.95	574
11.96	541
11.97	589
11.98	575
11.99	535
12	556
12.01	565
12.02	574
12.03	548
12.04	577
12.05	580
12.06	588
12.07	562
12.08	561
12.09	568
12.1	576
12.11	574
12.12	566
12.13	580
12.14	566
12.15	572
12.16	562
12.17	541
12.18	553
12.19	569
12.2	595
12.21	549
12.22	564
12.23	589
12.24	576
12.25	566
12.26	598
12.27	562
12.28	561
12.29	563
12.3	563
12.31	571
12.32	547
12.33	559
12.34	557
12.35	570
12.36	583
12.37	578
12.38	564
12.39	567
12.4	577
12.41	576
12.42	568
12.43	562
12.44	572
12.45	582
12.46	560
12.47	564
12.48	553
12.49	575
12.5	567
12.51	576
12.52	585
12.53	576
12.54	580
12.55	571
12.56	570
12.57	603
12.58	623
12.59	615
12.6	595
12.61	580
12.62	598
12.63	569
12.64	553
12.65	542
12.66	578
12.67	594
12.68	592
12.69	582
12.7	598
12.71	606
12.72	599
12.73	609
12.74	579
12.75	563
12.76	589
12.77	603
12.78	608
12.79	610
12.8	581
12.81	612
12.82	601
12.83	609
12.84	585
12.85	572
12.86	579
12.87	583
12.88	595
12.89	603
12.9	584
12.91	611
12.92	595
12.93	612
12.94	630
12.95	605
12.96	574
12.97	585
12.98	564
12.99	569
13	610
13.01	617
13.02	631
13.03	603
13.04	602
13.05	589
13.06	593
13.07	626
13.08	637
13.09	605
13.1	590
13.11	588
13.12	606
13.13	604
13.14	611
13.15	623
13.16	619
13.17	605
13.18	600
13.19	587
13.2	618
13.21	643
13.22	629
13.23	572
13.24	612
13.25	614
13.26	581
13.27	612
13.28	644
13.29	636
13.3	610
13.31	598
13.32	618
13.33	631
13.34	625
13.35	611
13.36	621
13.37	599
13.38	607
13.39	635
13.4	629
13.41	607
13.42	630
13.43	623
13.44	643
13.45	641
13.46	660
13.47	620
13.48	617
13.49	588
13.5	663
13.51	673
13.52	640
13.53	624
13.54	624
13.55	592
13.56	636
13.57	629
13.58	620
13.59	625
13.6	640
13.61	632
13.62	621
13.63	625
13.64	626
13.65	627
13.66	622
13.67	645
13.68	656
13.69	683
13.7	681
13.71	663
13.72	671
13.73	648
13.74	669
13.75	650
13.76	654
13.77	664
13.78	641
13.79	674
13.8	685
13.81	674
13.82	700
13.83	702
13.84	704
13.85	692
13.86	705
13.87	699
13.88	723
13.89	701
13.9	702
13.91	701
13.92	737
13.93	769
13.94	776
13.95	765
13.96	718
13.97	752
13.98	795
13.99	756
14	770
14.01	782
14.02	800
14.03	831
14.04	857
14.05	802
14.06	802
14.07	867
14.08	921
14.09	908
14.1	961
14.11	978
14.12	1013
14.13	1075
14.14	1080
14.15	1169
14.16	1199
14.17	1230
14.18	1290
14.19	1386
14.2	1472
14.21	1500
14.22	1604
14.23	1753
14.24	1832
14.25	1910
14.26	2085
14.27	2145
14.28	2276
14.29	2452
14.3	2659
14.31	2907
14.32	3127
14.33	3366
14.34	3616
14.35	3808
14.36	4072
14.37	4210
14.38	4111
14.39	3994
14.4	3793
14.41	3469
14.42	3155
14.43	2748
14.44	2336
14.45	1945
14.46	1697
14.47	1481
14.48	1282
14.49	1175
14.5	1035
14.51	960
14.52	937
14.53	920
14.54	884
14.55	873
14.56	852
14.57	818
14.58	853
14.59	807
14.6	784
14.61	772
14.62	779
14.63	753
14.64	740
14.65	748
14.66	745
14.67	722
14.68	717
14.69	743
14.7	690
14.71	708
14.72	743
14.73	731
14.74	733
14.75	748
14.76	711
14.77	735
14.78	724
14.79	727
14.8	707
14.81	723
14.82	704
14.83	716
14.84	689
14.85	676
14.86	701
14.87	701
14.88	691
14.89	691
14.9	689
14.91	644
14.92	673
14.93	682
14.94	697
14.95	680
14.96	693
14.97	666
14.98	661
14.99	706
15	734
15.01	748
15.02	702
15.03	688
15.04	701
15.05	696
15.06	721
15.07	727
15.08	675
15.09	625
15.1	623
15.11	656
15.12	709
15.13	723
15.14	701
15.15	689
15.16	687
15.17	694
15.18	695
15.19	716
15.2	718
15.21	661
15.22	684
15.23	679
15.24	706
15.25	704
15.26	704
15.27	699
15.28	714
15.29	708
15.3	685
15.31	695
15.32	720
15.33	712
15.34	695
15.35	672
15.36	712
15.37	736
15.38	729
15.39	753
15.4	739
15.41	744
15.42	746
15.43	730
15.44	714
15.45	728
15.46	712
15.47	697
15.48	716
15.49	697
15.5	703
15.51	717
15.52	689
15.53	688
15.54	705
15.55	673
15.56	718
15.57	695
15.58	718
15.59	732
15.6	737
15.61	699
15.62	683
15.63	691
15.64	713
15.65	701
15.66	715
15.67	705
15.68	723
15.69	724
15.7	713
15.71	682
15.72	697
15.73	713
15.74	711
15.75	698
15.76	693
15.77	700
15.78	739
15.79	714
15.8	696
15.81	675
15.82	677
15.83	705
15.84	711
15.85	704
15.86	729
15.87	727
15.88	742
15.89	707
15.9	698
15.91	719
15.92	700
15.93	696
15.94	702
15.95	692
15.96	693
15.97	723
15.98	735
15.99	704
16	718
16.01	757
16.02	730
16.03	747
16.04	755
16.05	713
16.06	693
16.07	692
16.08	717
16.09	724
16.1	698
16.11	715
16.12	715
16.13	723
16.14	723
16.15	719
16.16	723
16.17	749
16.18	755
16.19	757
16.2	713
16.21	716
16.22	692
16.23	709
16.24	723
16.25	730
16.26	730
16.27	752
16.28	704
16.29	690
16.3	710
16.31	723
16.32	721
16.33	736
16.34	721
16.35	738
16.36	716
16.37	712
16.38	707
16.39	710
16.4	727
16.41	681
16.42	714
16.43	753
16.44	757
16.45	737
16.46	714
16.47	748
16.48	702
16.49	710
16.5	730
16.51	744
16.52	710
16.53	718
16.54	765
16.55	776
16.56	751
16.57	713
16.58	716
16.59	732
16.6	722
16.61	725
16.62	738
16.63	774
16.64	724
16.65	727
16.66	725
16.67	728
16.68	714
16.69	752
16.7	734
16.71	708
16.72	764
16.73	783
16.74	757
16.75	777
16.76	761
16.77	727
16.78	744
16.79	746
16.8	774
16.81	776
16.82	758
16.83	755
16.84	747
16.85	779
16.86	789
16.87	797
16.88	787
16.89	763
16.9	773
16.91	745
16.92	761
16.93	779
16.94	774
16.95	792
16.96	790
16.97	772
16.98	762
16.99	781
17	767
17.01	779
17.02	792
17.03	802
17.04	796
17.05	818
17.06	853
17.07	839
17.08	774
17.09	803
17.1	805
17.11	826
17.12	793
17.13	842
17.14	860
17.15	814
17.16	828
17.17	881
17.18	887
17.19	896
17.2	866
17.21	902
17.22	894
17.23	876
17.24	898
17.25	878
17.26	855
17.27	835
17.28	861
17.29	867
17.3	846
17.31	831
17.32	836
17.33	847
17.34	784
17.35	774
17.36	787
17.37	824
17.38	809
17.39	835
17.4	838
17.41	816
17.42	822
17.43	823
17.44	807
17.45	820
17.46	780
17.47	758
17.48	805
17.49	850
17.5	845
17.51	819
17.52	820
17.53	793
17.54	819
17.55	816
17.56	817
17.57	823
17.58	816
17.59	819
17.6	854
17.61	844
17.62	808
17.63	818
17.64	843
17.65	818
17.66	831
17.67	864
17.68	838
17.69	831
17.7	829
17.71	872
17.72	860
17.73	858
17.74	848
17.75	899
17.76	920
17.77	886
17.78	875
17.79	873
17.8	885
17.81	919
17.82	931
17.83	941
17.84	937
17.85	936
17.86	974
17.87	989
17.88	944
17.89	902
17.9	951
17.91	973
17.92	960
17.93	975
17.94	949
17.95	961
17.96	915
17.97	979
17.98	955
17.99	934
18	925
18.01	926
18.02	901
18.03	914
18.04	891
18.05	932
18.06	928
18.07	912
18.08	914
18.09	920
18.1	921
18.11	912
18.12	922
18.13	966
18.14	956
18.15	961
18.16	981
18.17	981
18.18	989
18.19	951
18.2	963
18.21	999
18.22	1009
18.23	997
18.24	1027
18.25	1045
18.26	1046
18.27	1104
18.28	1136
18.29	1117
18.3	1077
18.31	1135
18.32	1142
18.33	1179
18.34	1177
18.35	1179
18.36	1239
18.37	1277
18.38	1237
18.39	1296
18.4	1319
18.41	1326
18.42	1389
18.43	1397
18.44	1375
18.45	1377
18.46	1435
18.47	1443
18.48	1430
18.49	1465
18.5	1492
18.51	1525
18.52	1596
18.53	1638
18.54	1690
18.55	1654
18.56	1664
18.57	1686
18.58	1756
18.59	1771
18.6	1757
18.61	1804
18.62	1821
18.63	1936
18.64	2002
18.65	2040
18.66	2190
18.67	2307
18.68	2454
18.69	2658
18.7	2855
18.71	2997
18.72	3225
18.73	3515
18.74	3876
18.75	4184
18.76	4508
18.77	4869
18.78	5364
18.79	5870
18.8	6432
18.81	7188
18.82	7957
18.83	8674
18.84	9748
18.85	10879
18.86	12077
18.87	13464
18.88	15156
18.89	17026
18.9	18843
18.91	20908
18.92	23212
18.93	25623
18.94	27894
18.95	29876
18.96	31342
18.97	32175
18.98	31963
18.99	30894
19	29445
19.01	27054
19.02	24512
19.03	21755
19.04	19459
19.05	17020
19.06	14656
19.07	12622
19.08	10898
19.09	9520
19.1	8456
19.11	7542
19.12	6699
19.13	6065
19.14	5681
19.15	5212
19.16	4783
19.17	4390
19.18	4172
19.19	3981
19.2	3721
19.21	3461
19.22	3304
19.23	3201
19.24	3073
19.25	2919
19.26	2791
19.27	2705
19.28	2548
19.29	2435
19.3	2438
19.31	2379
19.32	2243
19.33	2189
19.34	2088
19.35	2010
19.36	2008
19.37	1917
19.38	1822
19.39	1799
19.4	1745
19.41	1686
19.42	1633
19.43	1658
19.44	1625
19.45	1541
19.46	1475
19.47	1533
19.48	1485
19.49	1482
19.5	1463
19.51	1464
19.52	1402
19.53	1368
19.54	1376
19.55	1359
19.56	1367
19.57	1317
19.58	1294
19.59	1280
19.6	1246
19.61	1286
19.62	1233
19.63	1231
19.64	1178
19.65	1187
19.66	1210
19.67	1200
19.68	1191
19.69	1172
19.7	1176
19.71	1175
19.72	1175
19.73	1188
19.74	1151
19.75	1156
19.76	1156
19.77	1134
19.78	1120
19.79	1160
19.8	1124
19.81	1142
19.82	1108
19.83	1107
19.84	1129
19.85	1128
19.86	1068
19.87	1105
19.88	1084
19.89	1099
19.9	1079
19.91	1034
19.92	1066
19.93	1076
19.94	1111
19.95	1057
19.96	1051
19.97	1063
19.98	1077
19.99	1071
20	1049
20.01	1007
20.02	1053
20.03	1072
20.04	1023
20.05	978
20.06	1047
20.07	1068
20.08	1010
20.09	989
20.1	1026
20.11	1040
20.12	1046
20.13	1047
20.14	1000
20.15	1038
20.16	1055
20.17	1023
20.18	1011
20.19	1004
20.2	994
20.21	1000
20.22	999
20.23	1013
20.24	1006
20.25	1000
20.26	1012
20.27	956
20.28	978
20.29	1019
20.3	1021
20.31	1023
20.32	1042
20.33	1018
20.34	1010
20.35	1011
20.36	1032
20.37	978
20.38	984
20.39	982
20.4	952
20.41	990
20.42	995
20.43	979
20.44	982
20.45	992
20.46	996
20.47	965
20.48	944
20.49	981
20.5	966
20.51	924
20.52	937
20.53	955
20.54	993
20.55	1014
20.56	958
20.57	978
20.58	940
20.59	959
20.6	971
20.61	968
20.62	996
20.63	985
20.64	931
20.65	939
20.66	961
20.67	941
20.68	929
20.69	920
20.7	913
20.71	963
20.72	962
20.73	971
20.74	986
20.75	998
20.76	1011
20.77	1001
20.78	999
20.79	976
20.8	974
20.81	981
20.82	997
20.83	986
20.84	949
20.85	994
20.86	973
20.87	979
20.88	987
20.89	983
20.9	990
20.91	1027
20.92	1084
20.93	1045
20.94	1069
20.95	1035
20.96	1017
20.97	1021
20.98	1025
20.99	1013
21	1039
21.01	1053
21.02	1113
21.03	1082
21.04	1075
21.05	1021
21.06	1062
21.07	1065
21.08	1071
21.09	1111
21.1	1149
21.11	1132
21.12	1148
21.13	1141
21.14	1172
21.15	1121
21.16	1179
21.17	1193
21.18	1196
21.19	1202
21.2	1205
21.21	1203
21.22	1204
21.23	1196
21.24	1220
21.25	1267
21.26	1273
21.27	1332
21.28	1336
21.29	1328
21.3	1397
21.31	1489
21.32	1439
21.33	1533
21.34	1591
21.35	1666
21.36	1709
21.37	1797
21.38	1916
21.39	1974
21.4	2039
21.41	2164
21.42	2295
21.43	2439
21.44	2614
21.45	2874
21.46	3063
21.47	3331
21.48	3583
21.49	3896
21.5	4122
21.51	4451
21.52	4944
21.53	5299
21.54	5770
21.55	6426
21.56	6922
21.57	7357
21.58	7871
21.59	8236
21.6	8517
21.61	8389
21.62	8109
21.63	7606
21.64	6904
21.65	6226
21.66	5582
21.67	4948
21.68	4363
21.69	3754
21.7	3180
21.71	2689
21.72	2318
21.73	2149
21.74	1919
21.75	1782
21.76	1603
21.77	1455
21.78	1439
21.79	1406
21.8	1352
21.81	1261
21.82	1242
21.83	1235
21.84	1264
21.85	1249
21.86	1197
21.87	1201
21.88	1170
21.89	1153
21.9	1165
21.91	1114
21.92	1126
21.93	1076
21.94	1136
21.95	1107
21.96	1108
21.97	1070
21.98	1071
21.99	1101
22	1093
22.01	1015
22.02	1051
22.03	1077
22.04	1082
22.05	1054
22.06	1031
22.07	1046
22.08	1071
22.09	1076
22.1	1069
22.11	1110
22.12	1079
22.13	1095
22.14	1067
22.15	1052
22.16	1132
22.17	1063
22.18	999
22.19	1082
22.2	1046
22.21	1043
22.22	1062
22.23	1029
22.24	1002
22.25	987
22.26	1026
22.27	1010
22.28	1018
22.29	1016
22.3	997
22.31	964
22.32	980
22.33	984
22.34	963
22.35	942
22.36	948
22.37	922
22.38	978
22.39	963
22.4	932
22.41	907
22.42	943
22.43	933
22.44	943
22.45	907
22.46	930
22.47	912
22.48	910
22.49	887
22.5	883
22.51	903
22.52	917
22.53	929
22.54	918
22.55	891
22.56	922
22.57	949
22.58	936
22.59	911
22.6	913
22.61	897
22.62	918
22.63	950
22.64	927
22.65	929
22.66	929
22.67	904
22.68	918
22.69	924
22.7	906
22.71	926
22.72	935
22.73	933
22.74	930
22.75	945
22.76	957
22.77	977
22.78	1020
22.79	1041
22.8	1005
22.81	975
22.82	990
22.83	1000
22.84	1041
22.85	1025
22.86	973
22.87	997
22.88	1027
22.89	995
22.9	998
22.91	1003
22.92	985
22.93	955
22.94	999
22.95	1014
22.96	1032
22.97	1062
22.98	979
22.99	963
23	1008
23.01	1043
23.02	1006
23.03	985
23.04	1017
23.05	994
23.06	951
23.07	920
23.08	923
23.09	922
23.1	957
23.11	935
23.12	922
23.13	906
23.14	944
23.15	960
23.16	939
23.17	919
23.18	917
23.19	896
23.2	922
23.21	966
23.22	948
23.23	955
23.24	937
23.25	944
23.26	964
23.27	974
23.28	874
23.29	920
23.3	921
23.31	928
23.32	921
23.33	902
23.34	892
23.35	906
23.36	917
23.37	949
23.38	969
23.39	967
23.4	956
23.41	1006
23.42	961
23.43	930
23.44	976
23.45	949
23.46	964
23.47	951
23.48	953
23.49	943
23.5	969
23.51	966
23.52	1009
23.53	1029
23.54	987
23.55	977
23.56	1011
23.57	1011
23.58	980
23.59	980
23.6	950
23.61	953
23.62	963
23.63	939
23.64	913
23.65	957
23.66	977
23.67	947
23.68	975
23.69	955
23.7	976
23.71	915
23.72	910
23.73	925
23.74	916
23.75	921
23.76	921
23.77	887
23.78	881
23.79	902
23.8	917
23.81	919
23.82	918
23.83	898
23.84	910
23.85	888
23.86	903
23.87	890
23.88	857
23.89	853
23.9	904
23.91	861
23.92	872
23.93	843
23.94	911
23.95	932
23.96	888
23.97	875
23.98	872
23.99	862
24	876
24.01	898
24.02	832
24.03	827
24.04	853
24.05	877
24.06	871
24.07	869
24.08	885
24.09	868
24.1	822
24.11	805
24.12	850
24.13	863
24.14	845
24.15	862
24.16	842
24.17	844
24.18	851
24.19	828
24.2	829
24.21	866
24.22	835
24.23	817
24.24	841
24.25	861
24.26	834
24.27	834
24.28	816
24.29	812
24.3	810
24.31	812
24.32	839
24.33	841
24.34	838
24.35	825
24.36	816
24.37	827
24.38	823
24.39	821
24.4	854
24.41	834
24.42	837
24.43	829
24.44	835
24.45	800
24.46	835
24.47	840
24.48	821
24.49	809
24.5	852
24.51	811
24.52	799
24.53	808
24.54	805
24.55	836
24.56	787
24.57	813
24.58	820
24.59	826
24.6	796
24.61	813
24.62	812
24.63	814
24.64	838
24.65	836
24.66	778
24.67	798
24.68	852
24.69	843
24.7	820
24.71	814
24.72	818
24.73	853
24.74	856
24.75	815
24.76	837
24.77	833
24.78	856
24.79	846
24.8	806
24.81	809
24.82	835
24.83	838
24.84	829
24.85	812
24.86	806
24.87	795
24.88	835
24.89	838
24.9	851
24.91	861
24.92	866
24.93	827
24.94	855
24.95	800
24.96	803
24.97	881
24.98	854
24.99	850
25	848
25.01	824
25.02	845
25.03	853
25.04	827
25.05	846
25.06	854
25.07	858
25.08	840
25.09	835
25.1	825
25.11	822
25.12	841
25.13	878
25.14	830
25.15	803
25.16	840
25.17	818
25.18	808
25.19	812
25.2	796
25.21	792
25.22	839
25.23	819
25.24	800
25.25	799
25.26	847
25.27	842
25.28	812
25.29	805
25.3	822
25.31	808
25.32	789
25.33	809
25.34	775
25.35	778
25.36	810
25.37	807
25.38	786
25.39	803
25.4	777
25.41	820
25.42	778
25.43	770
25.44	765
25.45	772
25.46	824
25.47	790
25.48	759
25.49	764
25.5	793
25.51	819
25.52	769
25.53	758
25.54	782
25.55	802
25.56	789
25.57	777
25.58	798
25.59	790
25.6	804
25.61	864
25.62	778
25.63	819
25.64	839
25.65	810
25.66	774
25.67	801
25.68	822
25.69	820
25.7	803
25.71	784
25.72	807
25.73	804
25.74	813
25.75	810
25.76	841
25.77	817
25.78	773
25.79	757
25.8	808
25.81	831
25.82	804
25.83	778
25.84	823
25.85	778
25.86	760
25.87	771
25.88	808
25.89	798
25.9	804
25.91	821
25.92	775
25.93	766
25.94	781
25.95	804
25.96	796
25.97	799
25.98	785
25.99	835
26	788
26.01	781
26.02	758
26.03	760
26.04	795
26.05	769
26.06	771
26.07	764
26.08	816
26.09	801
26.1	772
26.11	796
26.12	810
26.13	821
26.14	804
26.15	823
26.16	809
26.17	772
26.18	765
26.19	791
26.2	763
26.21	749
26.22	785
26.23	810
26.24	840
26.25	791
26.26	791
26.27	806
26.28	793
26.29	787
26.3	804
26.31	812
26.32	830
26.33	820
26.34	765
26.35	779
26.36	808
26.37	801
26.38	797
26.39	801
26.4	786
26.41	783
26.42	780
26.43	791
26.44	783
26.45	818
26.46	785
26.47	779
26.48	837
26.49	809
26.5	813
26.51	812
26.52	780
26.53	791
26.54	790
26.55	759
26.56	791
26.57	807
26.58	822
26.59	820
26.6	854
26.61	852
26.62	819
26.63	795
26.64	817
26.65	843
26.66	826
26.67	829
26.68	842
26.69	842
26.7	828
26.71	794
26.72	806
26.73	813
26.74	797
26.75	818
26.76	839
26.77	787
26.78	783
26.79	804
26.8	815
26.81	818
26.82	816
26.83	811
26.84	828
26.85	814
26.86	872
26.87	852
26.88	832
26.89	821
26.9	849
26.91	869
26.92	864
26.93	834
26.94	822
26.95	883
26.96	869
26.97	862
26.98	892
26.99	876
27	881
27.01	918
27.02	921
27.03	950
27.04	970
27.05	961
27.06	907
27.07	937
27.08	961
27.09	948
27.1	944
27.11	947
27.12	926
27.13	929
27.14	926
27.15	911
27.16	921
27.17	902
27.18	898
27.19	878
27.2	858
27.21	866
27.22	869
27.23	862
27.24	829
27.25	840
27.26	854
27.27	841
27.28	819
27.29	849
27.3	850
27.31	857
27.32	841
27.33	812
27.34	792
27.35	826
27.36	846
27.37	843
27.38	829
27.39	794
27.4	833
27.41	849
27.42	857
27.43	846
27.44	845
27.45	838
27.46	875
27.47	880
27.48	867
27.49	827
27.5	846
27.51	861
27.52	895
27.53	895
27.54	872
27.55	886
27.56	872
27.57	882
27.58	910
27.59	869
27.6	861
27.61	880
27.62	864
27.63	893
27.64	916
27.65	930
27.66	895
27.67	927
27.68	940
27.69	913
27.7	911
27.71	905
27.72	919
27.73	927
27.74	944
27.75	956
27.76	938
27.77	929
27.78	899
27.79	897
27.8	885
27.81	883
27.82	902
27.83	934
27.84	933
27.85	907
27.86	936
27.87	933
27.88	933
27.89	922
27.9	954
27.91	889
27.92	957
27.93	940
27.94	927
27.95	942
27.96	939
27.97	934
27.98	963
27.99	970
28	963
28.01	952
28.02	929
28.03	971
28.04	989
28.05	1010
28.06	974
28.07	979
28.08	986
28.09	1030
28.1	1027
28.11	1010
28.12	1034
28.13	1050
28.14	997
28.15	1026
28.16	1020
28.17	1028
28.18	1010
28.19	1059
28.2	1061
28.21	1038
28.22	1041
28.23	1107
28.24	1149
28.25	1122
28.26	1156
28.27	1172
28.28	1182
28.29	1256
28.3	1271
28.31	1291
28.32	1309
28.33	1353
28.34	1414
28.35	1472
28.36	1543
28.37	1645
28.38	1733
28.39	1888
28.4	2017
28.41	2189
28.42	2387
28.43	2600
28.44	2767
28.45	3024
28.46	3235
28.47	3571
28.48	4012
28.49	4332
28.5	4755
28.51	5315
28.52	5927
28.53	6667
28.54	7522
28.55	7984
28.56	8724
28.57	9254
28.58	9612
28.59	9757
28.6	9808
28.61	9587
28.62	9240
28.63	8741
28.64	8444
28.65	8026
28.66	7588
28.67	7054
28.68	6406
28.69	5967
28.7	5549
28.71	4977
28.72	4552
28.73	4299
28.74	4019
28.75	3798
28.76	3746
28.77	3712
28.78	3746
28.79	3749
28.8	3725
28.81	3746
28.82	3917
28.83	4004
28.84	4258
28.85	4459
28.86	4664
28.87	4843
28.88	5185
28.89	5399
28.9	5548
28.91	5657
28.92	5737
28.93	5699
28.94	5499
28.95	5158
28.96	4817
28.97	4402
28.98	4153
28.99	3957
29	3553
29.01	3263
29.02	2945
29.03	2665
29.04	2363
29.05	2129
29.06	1878
29.07	1762
29.08	1654
29.09	1518
29.1	1417
29.11	1414
29.12	1370
29.13	1305
29.14	1275
29.15	1257
29.16	1271
29.17	1205
29.18	1197
29.19	1219
29.2	1181
29.21	1190
29.22	1148
29.23	1084
29.24	1054
29.25	1099
29.26	1077
29.27	1055
29.28	1081
29.29	1068
29.3	1062
29.31	1066
29.32	1041
29.33	1070
29.34	1049
29.35	1031
29.36	1000
29.37	1010
29.38	997
29.39	1026
29.4	1021
29.41	1019
29.42	996
29.43	1031
29.44	1017
29.45	992
29.46	977
29.47	1026
29.48	1058
29.49	1053
29.5	1061
29.51	1079
29.52	1073
29.53	1074
29.54	1068
29.55	1106
29.56	1116
29.57	1141
29.58	1133
29.59	1142
29.6	1146
29.61	1181
29.62	1198
29.63	1174
29.64	1236
29.65	1218
29.66	1255
29.67	1330
29.68	1313
29.69	1296
29.7	1401
29.71	1478
29.72	1496
29.73	1531
29.74	1558
29.75	1581
29.76	1525
29.77	1598
29.78	1648
29.79	1657
29.8	1713
29.81	1758
29.82	1711
29.83	1735
29.84	1778
29.85	1866
29.86	1967
29.87	2065
29.88	2147
29.89	2207
29.9	2353
29.91	2433
29.92	2659
29.93	2902
29.94	3137
29.95	3319
29.96	3524
29.97	3765
29.98	4048
29.99	4281
30	4550
30.01	4740
30.02	4776
30.03	4695
30.04	4745
30.05	4656
30.06	4492
30.07	4375
30.08	4122
30.09	3914
30.1	3832
30.11	3554
30.12	3286
30.13	3089
30.14	2950
30.15	2793
30.16	2610
30.17	2427
30.18	2279
30.19	2131
30.2	2069
30.21	1968
30.22	1901
30.23	1792
30.24	1830
30.25	1708
30.26	1674
30.27	1588
30.28	1576
30.29	1494
30.3	1457
30.31	1459
30.32	1457
30.33	1445
30.34	1407
30.35	1403
30.36	1394
30.37	1367
30.38	1358
30.39	1321
30.4	1302
30.41	1280
30.42	1299
30.43	1319
30.44	1292
30.45	1333
30.46	1365
30.47	1351
30.48	1326
30.49	1320
30.5	1310
30.51	1283
30.52	1352
30.53	1399
30.54	1449
30.55	1406
30.56	1408
30.57	1380
30.58	1378
30.59	1473
30.6	1470
30.61	1483
30.62	1493
30.63	1482
30.64	1459
30.65	1518
30.66	1453
30.67	1392
30.68	1436
30.69	1413
30.7	1362
30.71	1352
30.72	1329
30.73	1291
30.74	1274
30.75	1279
30.76	1223
30.77	1184
30.78	1157
30.79	1168
30.8	1174
30.81	1128
30.82	1134
30.83	1150
30.84	1148
30.85	1128
30.86	1100
30.87	1102
30.88	1143
30.89	1096
30.9	1050
30.91	1038
30.92	1102
30.93	1093
30.94	1086
30.95	1123
30.96	1134
30.97	1085
30.98	1102
30.99	1157
31	1143
31.01	1156
31.02	1164
31.03	1175
31.04	1194
31.05	1200
31.06	1218
31.07	1214
31.08	1270
31.09	1272
31.1	1283
31.11	1382
31.12	1401
31.13	1375
31.14	1354
31.15	1406
31.16	1479
31.17	1574
31.18	1577
31.19	1624
31.2	1725
31.21	1803
31.22	1948
31.23	1971
31.24	2046
31.25	2231
31.26	2381
31.27	2502
31.28	2598
31.29	2657
31.3	2734
31.31	2720
31.32	2768
31.33	2847
31.34	2788
31.35	2887
31.36	2961
31.37	3008
31.38	2916
31.39	2939
31.4	3057
31.41	3151
31.42	3132
31.43	3223
31.44	3373
31.45	3523
31.46	3584
31.47	3782
31.48	3967
31.49	4059
31.5	4201
31.51	4258
31.52	4257
31.53	4357
31.54	4387
31.55	4356
31.56	4285
31.57	4211
31.58	4158
31.59	3973
31.6	3791
31.61	3641
31.62	3507
31.63	3304
31.64	3249
31.65	3038
31.66	2821
31.67	2715
31.68	2577
31.69	2389
31.7	2294
31.71	2242
31.72	2120
31.73	1917
31.74	1890
31.75	1849
31.76	1806
31.77	1806
31.78	1747
31.79	1657
31.8	1611
31.81	1587
31.82	1571
31.83	1532
31.84	1442
31.85	1444
31.86	1451
31.87	1472
31.88	1454
31.89	1368
31.9	1410
31.91	1413
31.92	1377
31.93	1389
31.94	1346
31.95	1293
31.96	1231
31.97	1253
31.98	1244
31.99	1250
32	1184
32.01	1207
32.02	1194
32.03	1149
32.04	1152
32.05	1125
32.06	1083
32.07	1064
32.08	1096
32.09	1084
32.1	1083
32.11	1050
32.12	1051
32.13	1004
32.14	979
32.15	1012
32.16	1006
32.17	1030
32.18	1012
32.19	985
32.2	959
32.21	901
32.22	941
32.23	964
32.24	985
32.25	933
32.26	900
32.27	897
32.28	872
32.29	868
32.3	916
32.31	896
32.32	903
32.33	838
32.34	887
32.35	890
32.36	877
32.37	861
32.38	876
32.39	862
32.4	883
32.41	871
32.42	842
32.43	861
32.44	842
32.45	840
32.46	877
32.47	872
32.48	880
32.49	854
32.5	843
32.51	790
32.52	798
32.53	809
32.54	823
32.55	833
32.56	844
32.57	828
32.58	818
32.59	842
32.6	813
32.61	788
32.62	814
32.63	802
32.64	815
32.65	798
32.66	771
32.67	797
32.68	819
32.69	832
32.7	803
32.71	755
32.72	772
32.73	813
32.74	816
32.75	797
32.76	781
32.77	802
32.78	801
32.79	786
32.8	837
32.81	806
32.82	789
32.83	798
32.84	801
32.85	798
32.86	792
32.87	791
32.88	793
32.89	795
32.9	780
32.91	777
32.92	788
32.93	815
32.94	800
32.95	787
32.96	774
32.97	831
32.98	857
32.99	820
33	830
33.01	832
33.02	827
33.03	789
33.04	801
33.05	797
33.06	820
33.07	825
33.08	858
33.09	865
33.1	867
33.11	905
33.12	891
33.13	909
33.14	903
33.15	920
33.16	870
33.17	878
33.18	922
33.19	929
33.2	890
33.21	869
33.22	864
33.23	888
33.24	847
33.25	850
33.26	827
33.27	810
33.28	805
33.29	794
33.3	781
33.31	770
33.32	745
33.33	770
33.34	776
33.35	742
33.36	741
33.37	786
33.38	773
33.39	731
33.4	734
33.41	785
33.42	749
33.43	734
33.44	748
33.45	745
33.46	736
33.47	763
33.48	757
33.49	738
33.5	718
33.51	730
33.52	749
33.53	750
33.54	731
33.55	741
33.56	765
33.57	768
33.58	780
33.59	780
33.6	750
33.61	747
33.62	724
33.63	739
33.64	750
33.65	739
33.66	744
33.67	727
33.68	723
33.69	731
33.7	720
33.71	733
33.72	723
33.73	739
33.74	729
33.75	726
33.76	737
33.77	703
33.78	708
33.79	715
33.8	768
33.81	739
33.82	723
33.83	708
33.84	718
33.85	722
33.86	721
33.87	723
33.88	729
33.89	715
33.9	736
33.91	753
33.92	725
33.93	749
33.94	730
33.95	775
33.96	733
33.97	722
33.98	774
33.99	727
34	742
34.01	739
34.02	719
34.03	718
34.04	720
34.05	743
34.06	721
34.07	712
34.08	715
34.09	702
34.1	724
34.11	749
34.12	713
34.13	707
34.14	714
34.15	742
34.16	733
34.17	743
34.18	756
34.19	765
34.2	761
34.21	748
34.22	715
34.23	751
34.24	740
34.25	740
34.26	756
34.27	713
34.28	690
34.29	724
34.3	736
34.31	694
34.32	695
34.33	728
34.34	732
34.35	722
34.36	718
34.37	710
34.38	731
34.39	751
34.4	751
34.41	733
34.42	724
34.43	750
34.44	729
34.45	701
34.46	725
34.47	733
34.48	745
34.49	750
34.5	759
34.51	731
34.52	754
34.53	758
34.54	808
34.55	768
34.56	740
34.57	745
34.58	756
34.59	768
34.6	744
34.61	741
34.62	771
34.63	805
34.64	821
34.65	828
34.66	800
34.67	780
34.68	781
34.69	781
34.7	796
34.71	814
34.72	825
34.73	822
34.74	814
34.75	795
34.76	787
34.77	828
34.78	832
34.79	824
34.8	851
34.81	861
34.82	848
34.83	838
34.84	843
34.85	852
34.86	851
34.87	865
34.88	869
34.89	895
34.9	902
34.91	900
34.92	880
34.93	879
34.94	891
34.95	894
34.96	909
34.97	933
34.98	923
34.99	922
35	945
35.01	955
35.02	986
35.03	995
35.04	966
35.05	985
35.06	1019
35.07	1033
35.08	1031
35.09	1089
35.1	1026
35.11	1081
35.12	1088
35.13	1087
35.14	1117
35.15	1133
35.16	1147
35.17	1126
35.18	1086
35.19	1102
35.2	1090
35.21	1104
35.22	1121
35.23	1103
35.24	1075
35.25	1061
35.26	1049
35.27	1052
35.28	1011
35.29	998
35.3	1053
35.31	1012
35.32	964
35.33	994
35.34	1009
35.35	1011
35.36	1013
35.37	1032
35.38	1010
35.39	1000
35.4	980
35.41	990
35.42	974
35.43	981
35.44	996
35.45	1030
35.46	1077
35.47	1047
35.48	1099
35.49	1123
35.5	1085
35.51	1159
35.52	1177
35.53	1216
35.54	1271
35.55	1242
35.56	1257
35.57	1283
35.58	1286
35.59	1294
35.6	1341
35.61	1442
35.62	1480
35.63	1508
35.64	1521
35.65	1557
35.66	1577
35.67	1611
35.68	1587
35.69	1624
35.7	1679
35.71	1673
35.72	1672
35.73	1649
35.74	1662
35.75	1675
35.76	1624
35.77	1578
35.78	1556
35.79	1535
35.8	1521
35.81	1571
35.82	1553
35.83	1464
35.84	1368
35.85	1377
35.86	1331
35.87	1261
35.88	1235
35.89	1262
35.9	1233
35.91	1168
35.92	1196
35.93	1163
35.94	1176
35.95	1127
35.96	1103
35.97	1097
35.98	1052
35.99	1042
36	1064
36.01	1070
36.02	1044
36.03	1034
36.04	1029
36.05	1056
36.06	1059
36.07	1025
36.08	1050
36.09	1025
36.1	1046
36.11	1096
36.12	1130
36.13	1165
36.14	1154
36.15	1212
36.16	1219
36.17	1263
36.18	1297
36.19	1429
36.2	1447
36.21	1532
36.22	1574
36.23	1650
36.24	1766
36.25	1873
36.26	1976
36.27	2059
36.28	2203
36.29	2364
36.3	2550
36.31	2725
36.32	2900
36.33	2970
36.34	3081
36.35	3171
36.36	3094
36.37	3147
36.38	2990
36.39	2821
36.4	2699
36.41	2590
36.42	2360
36.43	2271
36.44	2186
36.45	2024
36.46	1941
36.47	1812
36.48	1693
36.49	1577
36.5	1419
36.51	1277
36.52	1226
36.53	1167
36.54	1049
36.55	1030
36.56	1046
36.57	1022
36.58	989
36.59	978
36.6	946
36.61	904
36.62	917
36.63	914
36.64	891
36.65	892
36.66	904
36.67	898
36.68	912
36.69	892
36.7	924
36.71	903
36.72	866
36.73	923
36.74	925
36.75	933
36.76	946
36.77	956
36.78	946
36.79	950
36.8	979
36.81	971
36.82	1001
36.83	1003
36.84	1016
36.85	1021
36.86	1025
36.87	1048
36.88	1089
36.89	1153
36.9	1167
36.91	1175
36.92	1183
36.93	1260
36.94	1355
36.95	1367
36.96	1462
36.97	1592
36.98	1610
36.99	1659
37	1760
37.01	1869
37.02	1916
37.03	1922
37.04	1924
37.05	1961
37.06	1906
37.07	1848
37.08	1848
37.09	1751
37.1	1688
37.11	1631
37.12	1622
37.13	1620
37.14	1560
37.15	1477
37.16	1406
37.17	1338
37.18	1252
37.19	1239
37.2	1194
37.21	1198
37.22	1134
37.23	1106
37.24	1056
37.25	1041
37.26	1004
37.27	1027
37.28	989
37.29	987
37.3	954
37.31	966
37.32	965
37.33	979
37.34	948
37.35	946
37.36	904
37.37	885
37.38	916
37.39	918
37.4	880
37.41	896
37.42	901
37.43	915
37.44	895
37.45	906
37.46	930
37.47	922
37.48	913
37.49	922
37.5	941
37.51	914
37.52	922
37.53	927
37.54	949
37.55	905
37.56	876
37.57	897
37.58	906
37.59	913
37.6	930
37.61	930
37.62	910
37.63	887
37.64	905
37.65	922
37.66	931
37.67	928
37.68	884
37.69	886
37.7	888
37.71	910
37.72	912
37.73	932
37.74	911
37.75	890
37.76	949
37.77	940
37.78	935
37.79	948
37.8	952
37.81	983
37.82	939
37.83	980
37.84	938
37.85	973
37.86	986
37.87	978
37.88	990
37.89	975
37.9	988
37.91	1015
37.92	1051
37.93	1051
37.94	1047
37.95	1063
37.96	1093
37.97	1105
37.98	1089
37.99	1105
38	1154
38.01	1136
38.02	1127
38.03	1196
38.04	1192
38.05	1208
38.06	1192
38.07	1248
38.08	1291
38.09	1258
38.1	1303
38.11	1368
38.12	1402
38.13	1470
38.14	1543
38.15	1566
38.16	1606
38.17	1729
38.18	1811
38.19	1909
38.2	2021
38.21	2268
38.22	2524
38.23	2676
38.24	2924
38.25	3286
38.26	3654
38.27	3828
38.28	4247
38.29	4617
38.3	5137
38.31	5728
38.32	6405
38.33	7259
38.34	8199
38.35	9181
38.36	10420
38.37	11805
38.38	13163
38.39	14137
38.4	15100
38.41	15591
38.42	15584
38.43	15365
38.44	14801
38.45	14106
38.46	13065
38.47	12432
38.48	12045
38.49	11755
38.5	11346
38.51	11018
38.52	10578
38.53	9762
38.54	8911
38.55	8059
38.56	7249
38.57	6412
38.58	5695
38.59	5171
38.6	4748
38.61	4402
38.62	4050
38.63	3777
38.64	3522
38.65	3422
38.66	3251
38.67	3084
38.68	2920
38.69	2852
38.7	2684
38.71	2529
38.72	2528
38.73	2460
38.74	2409
38.75	2291
38.76	2285
38.77	2182
38.78	2103
38.79	2061
38.8	1981
38.81	1880
38.82	1856
38.83	1866
38.84	1817
38.85	1764
38.86	1776
38.87	1754
38.88	1713
38.89	1694
38.9	1603
38.91	1611
38.92	1626
38.93	1599
38.94	1591
38.95	1594
38.96	1576
38.97	1510
38.98	1510
38.99	1554
39	1536
39.01	1503
39.02	1503
39.03	1483
39.04	1476
39.05	1489
39.06	1517
39.07	1478
39.08	1431
39.09	1434
39.1	1403
39.11	1373
39.12	1366
39.13	1428
39.14	1340
39.15	1339
39.16	1371
39.17	1335
39.18	1335
39.19	1329
39.2	1329
39.21	1281
39.22	1328
39.23	1313
39.24	1290
39.25	1279
39.26	1289
39.27	1233
39.28	1233
39.29	1275
39.3	1248
39.31	1234
39.32	1298
39.33	1305
39.34	1286
39.35	1312
39.36	1283
39.37	1249
39.38	1220
39.39	1236
39.4	1241
39.41	1302
39.42	1317
39.43	1277
39.44	1306
39.45	1318
39.46	1363
39.47	1400
39.48	1380
39.49	1362
39.5	1380
39.51	1393
39.52	1398
39.53	1393
39.54	1407
39.55	1396
39.56	1453
39.57	1400
39.58	1341
39.59	1380
39.6	1364
39.61	1400
39.62	1398
39.63	1325
39.64	1372
39.65	1354
39.66	1298
39.67	1269
39.68	1291
39.69	1303
39.7	1271
39.71	1217
39.72	1258
39.73	1242
39.74	1215
39.75	1143
39.76	1145
39.77	1182
39.78	1156
39.79	1093
39.8	1077
39.81	1110
39.82	1129
39.83	1094
39.84	1109
39.85	1104
39.86	1100
39.87	1052
39.88	1055
39.89	1065
39.9	1040
39.91	1007
39.92	1054
39.93	1047
39.94	1026
39.95	1005
39.96	1032
39.97	1039
39.98	1036
39.99	1064
40	1020
40.01	1017
40.02	999
40.03	1014
40.04	1022
40.05	1018
40.06	975
40.07	994
40.08	1020
40.09	1001
40.1	1006
40.11	999
40.12	953
40.13	966
40.14	1007
40.15	974
40.16	945
40.17	948
40.18	987
40.19	989
40.2	978
40.21	963
40.22	971
40.23	1009
40.24	948
40.25	983
40.26	979
40.27	979
40.28	982
40.29	978
40.3	963
40.31	939
40.32	949
40.33	1006
40.34	1021
40.35	975
40.36	970
40.37	1014
40.38	1012
40.39	994
40.4	1022
40.41	1041
40.42	1006
40.43	1000
40.44	1023
40.45	1032
40.46	1007
40.47	1001
40.48	1002
40.49	1018
40.5	1020
40.51	1041
40.52	1022
40.53	1007
40.54	1024
40.55	1014
40.56	1028
40.57	1042
40.58	1073
40.59	1084
40.6	1105
40.61	1086
40.62	1074
40.63	1078
40.64	1083
40.65	1072
40.66	1098
40.67	1103
40.68	1080
40.69	1075
40.7	1082
40.71	1095
40.72	1052
40.73	1095
40.74	1141
40.75	1135
40.76	1145
40.77	1144
40.78	1129
40.79	1144
40.8	1121
40.81	1157
40.82	1175
40.83	1205
40.84	1202
40.85	1142
40.86	1172
40.87	1204
40.88	1196
40.89	1205
40.9	1244
40.91	1239
40.92	1177
40.93	1148
40.94	1191
40.95	1251
40.96	1251
40.97	1247
40.98	1229
40.99	1218
41	1231
41.01	1205
41.02	1215
41.03	1244
41.04	1235
41.05	1284
41.06	1264
41.07	1319
41.08	1347
41.09	1358
41.1	1346
41.11	1370
41.12	1344
41.13	1339
41.14	1374
41.15	1398
41.16	1398
41.17	1368
41.18	1384
41.19	1437
41.2	1497
41.21	1513
41.22	1515
41.23	1548
41.24	1547
41.25	1542
41.26	1614
41.27	1605
41.28	1599
41.29	1625
41.3	1618
41.31	1636
41.32	1681
41.33	1722
41.34	1759
41.35	1772
41.36	1810
41.37	1846
41.38	1925
41.39	1891
41.4	1959
41.41	1989
41.42	1980
41.43	2069
41.44	2093
41.45	2107
41.46	2172
41.47	2179
41.48	2209
41.49	2307
41.5	2383
41.51	2413
41.52	2487
41.53	2520
41.54	2612
41.55	2640
41.56	2730
41.57	2774
41.58	2828
41.59	2964
41.6	3053
41.61	3079
41.62	3131
41.63	3347
41.64	3436
41.65	3523
41.66	3706
41.67	3775
41.68	3848
41.69	3972
41.7	4259
41.71	4323
41.72	4509
41.73	4730
41.74	4910
41.75	4976
41.76	5198
41.77	5444
41.78	5596
41.79	5898
41.8	6243
41.81	6463
41.82	6630
41.83	7001
41.84	7151
41.85	7315
41.86	7579
41.87	7676
41.88	7617
41.89	7740
41.9	7942
41.91	7944
41.92	7756
41.93	7773
41.94	7811
41.95	7695
41.96	7472
41.97	7287
41.98	7111
41.99	6783
42	6610
42.01	6506
42.02	6341
42.03	6119
42.04	5816
42.05	5602
42.06	5346
42.07	5113
42.08	4909
42.09	4811
42.1	4640
42.11	4393
42.12	4313
42.13	4067
42.14	3830
42.15	3757
42.16	3654
42.17	3507
42.18	3382
42.19	3237
42.2	3083
42.21	3014
42.22	2905
42.23	2879
42.24	2897
42.25	2753
42.26	2680
42.27	2587
42.28	2515
42.29	2474
42.3	2384
42.31	2322
42.32	2358
42.33	2271
42.34	2193
42.35	2181
42.36	2132
42.37	2050
42.38	2032
42.39	2015
42.4	1951
42.41	1966
42.42	1940
42.43	1848
42.44	1838
42.45	1833
42.46	1793
42.47	1736
42.48	1719
42.49	1685
42.5	1660
42.51	1647
42.52	1676
42.53	1655
42.54	1633
42.55	1650
42.56	1590
42.57	1600
42.58	1550
42.59	1559
42.6	1547
42.61	1467
42.62	1470
42.63	1467
42.64	1478
42.65	1447
42.66	1388
42.67	1428
42.68	1396
42.69	1397
42.7	1393
42.71	1350
42.72	1345
42.73	1354
42.74	1322
42.75	1294
42.76	1295
42.77	1293
42.78	1273
42.79	1276
42.8	1234
42.81	1234
42.82	1226
42.83	1208
42.84	1163
42.85	1171
42.86	1183
42.87	1191
42.88	1181
42.89	1182
42.9	1127
42.91	1089
42.92	1131
42.93	1179
42.94	1162
42.95	1150
42.96	1164
42.97	1090
42.98	1108
42.99	1124
43	1148
43.01	1125
43.02	1064
43.03	1076
43.04	1087
43.05	1107
43.06	1101
43.07	1076
43.08	1082
43.09	1088
43.1	1044
43.11	1015
43.12	1062
43.13	1036
43.14	1063
43.15	1068
43.16	1051
43.17	1092
43.18	1070
43.19	1046
43.2	1066
43.21	999
43.22	1008
43.23	1007
43.24	1021
43.25	1040
43.26	1015
43.27	987
43.28	963
43.29	998
43.3	1008
43.31	1028
43.32	1005
43.33	967
43.34	965
43.35	941
43.36	959
43.37	1000
43.38	956
43.39	921
43.4	936
43.41	981
43.42	948
43.43	930
43.44	994
43.45	966
43.46	915
43.47	932
43.48	921
43.49	955
43.5	939
43.51	899
43.52	928
43.53	920
43.54	946
43.55	942
43.56	965
43.57	919
43.58	921
43.59	946
43.6	939
43.61	961
43.62	984
43.63	964
43.64	932
43.65	938
43.66	947
43.67	1004
43.68	1009
43.69	1008
43.7	991
43.71	960
43.72	950
43.73	998
43.74	1029
43.75	1047
43.76	1042
43.77	1068
43.78	1134
43.79	1112
43.8	1154
43.81	1210
43.82	1204
43.83	1278
43.84	1392
43.85	1456
43.86	1466
43.87	1657
43.88	1787
43.89	1915
43.9	2069
43.91	2261
43.92	2403
43.93	2506
43.94	2558
43.95	2625
43.96	2754
43.97	2737
43.98	2656
43.99	2514
44	2366
44.01	2297
44.02	2183
44.03	2083
44.04	1980
44.05	1988
44.06	1932
44.07	1920
44.08	1907
44.09	1804
44.1	1661
44.11	1539
44.12	1427
44.13	1360
44.14	1252
44.15	1161
44.16	1128
44.17	1073
44.18	1018
44.19	1003
44.2	1012
44.21	971
44.22	883
44.23	885
44.24	906
44.25	868
44.26	900
44.27	823
44.28	852
44.29	852
44.3	870
44.31	845
44.32	804
44.33	848
44.34	858
44.35	816
44.36	811
44.37	849
44.38	880
44.39	890
44.4	849
44.41	834
44.42	831
44.43	855
44.44	858
44.45	845
44.46	831
44.47	799
44.48	825
44.49	851
44.5	821
44.51	867
44.52	889
44.53	841
44.54	836
44.55	825
44.56	835
44.57	845
44.58	838
44.59	833
44.6	845
44.61	852
44.62	874
44.63	869
44.64	897
44.65	886
44.66	866
44.67	857
44.68	895
44.69	932
44.7	901
44.71	911
44.72	907
44.73	921
44.74	942
44.75	929
44.76	955
44.77	942
44.78	935
44.79	940
44.8	976
44.81	1024
44.82	1000
44.83	1003
44.84	1011
44.85	979
44.86	983
44.87	991
44.88	980
44.89	985
44.9	984
44.91	983
44.92	973
44.93	998
44.94	991
44.95	962
44.96	966
44.97	973
44.98	958
44.99	968
45	977
45.01	978
45.02	937
45.03	904
45.04	911
45.05	867
45.06	839
45.07	887
45.08	882
45.09	893
45.1	852
45.11	845
45.12	831
45.13	822
45.14	847
45.15	850
45.16	844
45.17	850
45.18	846
45.19	850
45.2	829
45.21	818
45.22	803
45.23	799
45.24	812
45.25	825
45.26	860
45.27	813
45.28	817
45.29	834
45.3	841
45.31	788
45.32	778
45.33	796
45.34	819
45.35	815
45.36	816
45.37	776
45.38	779
45.39	809
45.4	767
45.41	767
45.42	811
45.43	805
45.44	791
45.45	782
45.46	762
45.47	785
45.48	828
45.49	815
45.5	804
45.51	795
45.52	796
45.53	821
45.54	792
45.55	800
45.56	829
45.57	818
45.58	792
45.59	816
45.6	826
45.61	833
45.62	827
45.63	802
45.64	827
45.65	772
45.66	763
45.67	806
45.68	797
45.69	815
45.7	796
45.71	790
45.72	788
45.73	812
45.74	803
45.75	783
45.76	771
45.77	821
45.78	810
45.79	801
45.8	766
45.81	767
45.82	769
45.83	780
45.84	794
45.85	779
45.86	766
45.87	746
45.88	744
45.89	769
45.9	788
45.91	746
45.92	748
45.93	738
45.94	769
45.95	723
45.96	726
45.97	695
45.98	694
45.99	730
46	737
46.01	707
46.02	694
46.03	719
46.04	727
46.05	719
46.06	685
46.07	697
46.08	663
46.09	672
46.1	684
46.11	731
46.12	689
46.13	693
46.14	682
46.15	687
46.16	690
46.17	687
46.18	692
46.19	682
46.2	643
46.21	664
46.22	665
46.23	665
46.24	695
46.25	706
46.26	691
46.27	674
46.28	680
46.29	675
46.3	687
46.31	659
46.32	669
46.33	663
46.34	686
46.35	694
46.36	670
46.37	649
46.38	653
46.39	669
46.4	663
46.41	676
46.42	676
46.43	686
46.44	656
46.45	684
46.46	690
46.47	685
46.48	688
46.49	678
46.5	662
46.51	643
46.52	607
46.53	643
46.54	621
46.55	655
46.56	673
46.57	650
46.58	690
46.59	709
46.6	636
46.61	649
46.62	662
46.63	662
46.64	658
46.65	669
46.66	654
46.67	656
46.68	673
46.69	648
46.7	647
46.71	659
46.72	658
46.73	646
46.74	646
46.75	589
46.76	611
46.77	648
46.78	652
46.79	644
46.8	640
46.81	619
46.82	645
46.83	659
46.84	656
46.85	662
46.86	671
46.87	653
46.88	626
46.89	632
46.9	650
46.91	683
46.92	681
46.93	672
46.94	659
46.95	637
46.96	658
46.97	652
46.98	648
46.99	646
47	643
47.01	628
47.02	641
47.03	653
47.04	617
47.05	626
47.06	639
47.07	662
47.08	690
47.09	700
47.1	687
47.11	639
47.12	645
47.13	664
47.14	637
47.15	661
47.16	692
47.17	669
47.18	646
47.19	631
47.2	633
47.21	676
47.22	657
47.23	655
47.24	643
47.25	671
47.26	665
47.27	632
47.28	644
47.29	654
47.3	641
47.31	634
47.32	658
47.33	661
47.34	646
47.35	669
47.36	665
47.37	672
47.38	659
47.39	699
47.4	725
47.41	696
47.42	698
47.43	699
47.44	690
47.45	702
47.46	719
47.47	753
47.48	786
47.49	784
47.5	776
47.51	785
47.52	797
47.53	801
47.54	815
47.55	867
47.56	907
47.57	926
47.58	934
47.59	926
47.6	939
47.61	962
47.62	997
47.63	1006
47.64	992
47.65	968
47.66	995
47.67	996
47.68	996
47.69	954
47.7	906
47.71	900
47.72	916
47.73	920
47.74	908
47.75	878
47.76	910
47.77	867
47.78	832
47.79	860
47.8	876
47.81	807
47.82	783
47.83	790
47.84	782
47.85	781
47.86	761
47.87	752
47.88	718
47.89	738
47.9	751
47.91	721
47.92	719
47.93	712
47.94	720
47.95	720
47.96	736
47.97	722
47.98	734
47.99	778
48	740
48.01	658
48.02	679
48.03	689
48.04	684
48.05	680
48.06	679
48.07	671
48.08	718
48.09	714
48.1	709
48.11	711
48.12	689
48.13	693
48.14	742
48.15	753
48.16	736
48.17	697
48.18	704
48.19	707
48.2	721
48.21	711
48.22	691
48.23	699
48.24	717
48.25	702
48.26	737
48.27	757
48.28	741
48.29	749
48.3	753
48.31	729
48.32	729
48.33	716
48.34	734
48.35	740
48.36	776
48.37	774
48.38	739
48.39	780
48.4	787
48.41	788
48.42	823
48.43	824
48.44	860
48.45	918
48.46	953
48.47	963
48.48	1025
48.49	1078
48.5	1136
48.51	1193
48.52	1286
48.53	1313
48.54	1362
48.55	1385
48.56	1395
48.57	1378
48.58	1276
48.59	1220
48.6	1216
48.61	1175
48.62	1135
48.63	1195
48.64	1170
48.65	1153
48.66	1134
48.67	1175
48.68	1144
48.69	1147
48.7	1084
48.71	1065
48.72	996
48.73	961
48.74	971
48.75	865
48.76	863
48.77	863
48.78	861
48.79	867
48.8	832
48.81	843
48.82	848
48.83	854
48.84	817
48.85	826
48.86	839
48.87	829
48.88	805
48.89	798
48.9	789
48.91	794
48.92	841
48.93	799
48.94	790
48.95	823
48.96	807
48.97	803
48.98	810
48.99	820
49	801
49.01	781
49.02	809
49.03	844
49.04	827
49.05	869
49.06	847
49.07	824
49.08	842
49.09	854
49.1	814
49.11	816
49.12	810
49.13	788
49.14	849
49.15	899
49.16	910
49.17	917
49.18	906
49.19	924
49.2	919
49.21	916
49.22	928
49.23	932
49.24	940
49.25	969
49.26	992
49.27	1007
49.28	1018
49.29	1015
49.3	1055
49.31	1053
49.32	1027
49.33	1034
49.34	1081
49.35	1113
49.36	1152
49.37	1129
49.38	1130
49.39	1129
49.4	1192
49.41	1236
49.42	1198
49.43	1209
49.44	1283
49.45	1274
49.46	1318
49.47	1287
49.48	1316
49.49	1268
49.5	1275
49.51	1241
49.52	1247
49.53	1270
49.54	1189
49.55	1188
49.56	1153
49.57	1183
49.58	1184
49.59	1144
49.6	1143
49.61	1105
49.62	1089
49.63	1053
49.64	1042
49.65	1024
49.66	983
49.67	1012
49.68	1012
49.69	985
49.7	966
49.71	952
49.72	929
49.73	957
49.74	928
49.75	929
49.76	896
49.77	898
49.78	878
49.79	861
49.8	858
49.81	862
49.82	834
49.83	821
49.84	806
49.85	792
49.86	790
49.87	790
49.88	785
49.89	776
49.9	767
49.91	771
49.92	756
49.93	766
49.94	733
49.95	723
49.96	731
49.97	755
49.98	757
49.99	706
50	696
50.01	709
50.02	695
50.03	721
50.04	744
50.05	748
50.06	707
50.07	692
50.08	709
50.09	734
50.1	733
50.11	681
50.12	651
50.13	688
50.14	711
50.15	713
50.16	696
50.17	668
50.18	644
50.19	663
50.2	703
50.21	695
50.22	681
50.23	670
50.24	697
50.25	709
50.26	680
50.27	670
50.28	678
50.29	670
50.3	646
50.31	625
50.32	648
50.33	667
50.34	654
50.35	650
50.36	607
50.37	634
50.38	658
50.39	666
50.4	673
50.41	676
50.42	682
50.43	667
50.44	641
50.45	647
50.46	652
50.47	673
50.48	670
50.49	646
50.5	640
50.51	687
50.52	685
50.53	655
50.54	651
50.55	642
50.56	642
50.57	645
50.58	644
50.59	671
50.6	689
50.61	652
50.62	693
50.63	703
50.64	679
50.65	703
50.66	668
50.67	673
50.68	697
50.69	658
50.7	674
50.71	702
50.72	718
50.73	728
50.74	721
50.75	717
50.76	758
50.77	746
50.78	737
50.79	724
50.8	716
50.81	727
50.82	739
50.83	748
50.84	742
50.85	754
50.86	746
50.87	746
50.88	725
50.89	716
50.9	715
50.91	728
50.92	738
50.93	724
50.94	688
50.95	722
50.96	709
50.97	709
50.98	738
50.99	694
51	713
51.01	698
51.02	693
51.03	710
51.04	715
51.05	676
51.06	694
51.07	679
51.08	676
51.09	676
51.1	680
51.11	677
51.12	686
51.13	673
51.14	674
51.15	649
51.16	663
51.17	670
51.18	679
51.19	644
51.2	659
51.21	651
51.22	661
51.23	644
51.24	651
51.25	644
51.26	644
51.27	642
51.28	655
51.29	667
51.3	670
51.31	671
51.32	637
51.33	659
51.34	626
51.35	606
51.36	625
51.37	642
51.38	668
51.39	655
51.4	661
51.41	638
51.42	659
51.43	671
51.44	675
51.45	647
51.46	647
51.47	634
51.48	634
51.49	637
51.5	638
51.51	665
51.52	693
51.53	665
51.54	652
51.55	646
51.56	674
51.57	671
51.58	714
51.59	685
51.6	664
51.61	650
51.62	665
51.63	666
51.64	722
51.65	742
51.66	746
51.67	760
51.68	752
51.69	768
51.7	795
51.71	839
51.72	851
51.73	906
51.74	943
51.75	951
51.76	930
51.77	933
51.78	933
51.79	910
51.8	874
51.81	872
51.82	865
51.83	842
51.84	845
51.85	806
51.86	813
51.87	821
51.88	791
51.89	792
51.9	803
51.91	774
51.92	801
51.93	820
51.94	803
51.95	773
51.96	732
51.97	704
51.98	709
51.99	684
52	703
52.01	725
52.02	691
52.03	659
52.04	696
52.05	695
52.06	713
52.07	694
52.08	644
52.09	686
52.1	691
52.11	697
52.12	738
52.13	735
52.14	724
52.15	721
52.16	757
52.17	786
52.18	776
52.19	787
52.2	818
52.21	848
52.22	828
52.23	833
52.24	843
52.25	797
52.26	868
52.27	869
52.28	867
52.29	871
52.3	823
52.31	790
52.32	761
52.33	760
52.34	781
52.35	785
52.36	771
52.37	733
52.38	737
52.39	741
52.4	749
52.41	757
52.42	766
52.43	711
52.44	707
52.45	699
52.46	707
52.47	691
52.48	676
52.49	650
52.5	677
52.51	647
52.52	660
52.53	671
52.54	676
52.55	677
52.56	686
52.57	666
52.58	656
52.59	662
52.6	675
52.61	664
52.62	634
52.63	602
52.64	672
52.65	674
52.66	697
52.67	708
52.68	721
52.69	671
52.7	679
52.71	693
52.72	676
52.73	734
52.74	709
52.75	720
52.76	709
52.77	723
52.78	718
52.79	695
52.8	701
52.81	719
52.82	718
52.83	739
52.84	755
52.85	774
52.86	767
52.87	798
52.88	791
52.89	760
52.9	806
52.91	777
52.92	808
52.93	813
52.94	866
52.95	916
52.96	927
52.97	897
52.98	896
52.99	932
53	988
53.01	1016
53.02	1012
53.03	1027
53.04	1028
53.05	1071
53.06	1105
53.07	1069
53.08	1131
53.09	1114
53.1	1130
53.11	1245
53.12	1234
53.13	1262
53.14	1319
53.15	1413
53.16	1498
53.17	1555
53.18	1622
53.19	1644
53.2	1763
53.21	1811
53.22	1913
53.23	1970
53.24	2022
53.25	2140
53.26	2217
53.27	2207
53.28	2182
53.29	2206
53.3	2243
53.31	2209
53.32	2155
53.33	2098
53.34	2061
53.35	2059
53.36	1957
53.37	1928
53.38	1929
53.39	1908
53.4	1863
53.41	1824
53.42	1746
53.43	1681
53.44	1663
53.45	1628
53.46	1581
53.47	1515
53.48	1393
53.49	1329
53.5	1328
53.51	1299
53.52	1220
53.53	1153
53.54	1189
53.55	1119
53.56	1060
53.57	1043
53.58	1038
53.59	1046
53.6	1031
53.61	983
53.62	974
53.63	950
53.64	906
53.65	871
53.66	902
53.67	900
53.68	876
53.69	868
53.7	896
53.71	867
53.72	897
53.73	870
53.74	863
53.75	863
53.76	847
53.77	852
53.78	809
53.79	832
53.8	839
53.81	840
53.82	813
53.83	790
53.84	778
53.85	806
53.86	852
53.87	855
53.88	833
53.89	831
53.9	873
53.91	860
53.92	801
53.93	808
53.94	806
53.95	897
53.96	862
53.97	870
53.98	886
53.99	806
54	818
54.01	807
54.02	812
54.03	833
54.04	851
54.05	826
54.06	816
54.07	815
54.08	791
54.09	804
54.1	820
54.11	794
54.12	800
54.13	828
54.14	811
54.15	783
54.16	773
54.17	765
54.18	754
54.19	774
54.2	778
54.21	751
54.22	780
54.23	767
54.24	737
54.25	721
54.26	718
54.27	721
54.28	720
54.29	685
54.3	705
54.31	718
54.32	736
54.33	729
54.34	696
54.35	665
54.36	651
54.37	697
54.38	678
54.39	680
54.4	699
54.41	657
54.42	671
54.43	666
54.44	661
54.45	671
54.46	661
54.47	637
54.48	611
54.49	622
54.5	640
54.51	634
54.52	647
54.53	643
54.54	636
54.55	618
54.56	648
54.57	631
54.58	638
54.59	615
54.6	630
54.61	650
54.62	659
54.63	666
54.64	661
54.65	594
54.66	585
54.67	598
54.68	613
54.69	606
54.7	621
54.71	618
54.72	636
54.73	628
54.74	604
54.75	615
54.76	580
54.77	635
54.78	631
54.79	630
54.8	614
54.81	603
54.82	604
54.83	597
54.84	601
54.85	595
54.86	616
54.87	608
54.88	636
54.89	664
54.9	622
54.91	597
54.92	609
54.93	637
54.94	650
54.95	654
54.96	641
54.97	634
54.98	626
54.99	616
55	584
55.01	623
55.02	657
55.03	632
55.04	616
55.05	635
55.06	637
55.07	634
55.08	614
55.09	614
55.1	628
55.11	632
55.12	625
55.13	649
55.14	648
55.15	610
55.16	636
55.17	619
55.18	603
55.19	602
55.2	583
55.21	604
55.22	625
55.23	622
55.24	607
55.25	609
55.26	617
55.27	644
55.28	653
55.29	633
55.3	650
55.31	629
55.32	642
55.33	633
55.34	643
55.35	630
55.36	620
55.37	629
55.38	618
55.39	613
55.4	647
55.41	656
55.42	644
55.43	659
55.44	614
55.45	620
55.46	646
55.47	648
55.48	624
55.49	614
55.5	654
55.51	641
55.52	626
55.53	645
55.54	632
55.55	625
55.56	649
55.57	677
55.58	629
55.59	620
55.6	626
55.61	637
55.62	637
55.63	603
55.64	610
55.65	621
55.66	637
55.67	675
55.68	656
55.69	619
55.7	630
55.71	646
55.72	636
55.73	666
55.74	674
55.75	677
55.76	658
55.77	632
55.78	645
55.79	635
55.8	649
55.81	627
55.82	629
55.83	626
55.84	606
55.85	619
55.86	666
55.87	679
55.88	687
55.89	642
55.9	634
55.91	651
55.92	660
55.93	643
55.94	664
55.95	618
55.96	605
55.97	640
55.98	648
55.99	635
56	650
56.01	649
56.02	636
56.03	635
56.04	666
56.05	665
56.06	673
56.07	666
56.08	647
56.09	620
56.1	634
56.11	653
56.12	684
56.13	701
56.14	626
56.15	636
56.16	656
56.17	657
56.18	658
56.19	665
56.2	668
56.21	655
56.22	694
56.23	685
56.24	669
56.25	667
56.26	650
56.27	694
56.28	690
56.29	709
56.3	688
56.31	703
56.32	696
56.33	674
56.34	686
56.35	673
56.36	677
56.37	687
56.38	685
56.39	678
56.4	682
56.41	710
56.42	719
56.43	708
56.44	692
56.45	700
56.46	742
56.47	707
56.48	721
56.49	748
56.5	700
56.51	714
56.52	711
56.53	716
56.54	738
56.55	764
56.56	710
56.57	723
56.58	760
56.59	775
56.6	759
56.61	761
56.62	761
56.63	748
56.64	736
56.65	738
56.66	736
56.67	791
56.68	802
56.69	772
56.7	808
56.71	829
56.72	795
56.73	828
56.74	831
56.75	837
56.76	803
56.77	813
56.78	771
56.79	810
56.8	804
56.81	844
56.82	884
56.83	886
56.84	919
56.85	901
56.86	879
56.87	884
56.88	899
56.89	906
56.9	924
56.91	948
56.92	965
56.93	1011
56.94	1064
56.95	1061
56.96	1021
56.97	1065
56.98	1093
56.99	1054
57	1052
57.01	1049
57.02	1083
57.03	1109
57.04	1134
57.05	1152
57.06	1132
57.07	1155
57.08	1199
57.09	1162
57.1	1166
57.11	1188
57.12	1168
57.13	1145
57.14	1127
57.15	1065
57.16	1101
57.17	1145
57.18	1083
57.19	1086
57.2	1052
57.21	1064
57.22	1055
57.23	1066
57.24	1082
57.25	1129
57.26	1071
57.27	1056
57.28	1066
57.29	1012
57.3	996
57.31	1037
57.32	1026
57.33	974
57.34	975
57.35	982
57.36	956
57.37	962
57.38	995
57.39	1008
57.4	1002
57.41	1013
57.42	1009
57.43	975
57.44	962
57.45	963
57.46	961
57.47	971
57.48	972
57.49	973
57.5	1009
57.51	982
57.52	1026
57.53	985
57.54	987
57.55	976
57.56	1000
57.57	1010
57.58	1011
57.59	973
57.6	994
57.61	991
57.62	1054
57.63	1020
57.64	1014
57.65	1041
57.66	1033
57.67	1032
57.68	1009
57.69	1033
57.7	1066
57.71	1034
57.72	1019
57.73	1079
57.74	1094
57.75	1073
57.76	1088
57.77	1099
57.78	1093
57.79	1083
57.8	1130
57.81	1149
57.82	1159
57.83	1155
57.84	1136
57.85	1183
57.86	1209
57.87	1257
57.88	1277
57.89	1309
57.9	1304
57.91	1311
57.92	1299
57.93	1323
57.94	1399
57.95	1442
57.96	1420
57.97	1516
57.98	1498
57.99	1546
58	1559
58.01	1571
58.02	1590
58.03	1637
58.04	1640
58.05	1724
58.06	1792
58.07	1779
58.08	1739
58.09	1764
58.1	1801
58.11	1791
58.12	1807
58.13	1781
58.14	1784
58.15	1789
58.16	1713
58.17	1763
58.18	1717
58.19	1697
58.2	1722
58.21	1685
58.22	1684
58.23	1645
58.24	1627
58.25	1547
58.26	1523
58.27	1527
58.28	1576
58.29	1507
58.3	1454
58.31	1461
58.32	1443
58.33	1429
58.34	1385
58.35	1349
58.36	1338
58.37	1326
58.38	1331
58.39	1271
58.4	1251
58.41	1284
58.42	1264
58.43	1199
58.44	1167
58.45	1186
58.46	1195
58.47	1186
58.48	1193
58.49	1188
58.5	1166
58.51	1154
58.52	1169
58.53	1192
58.54	1169
58.55	1174
58.56	1131
58.57	1141
58.58	1122
58.59	1130
58.6	1139
58.61	1124
58.62	1124
58.63	1112
58.64	1130
58.65	1124
58.66	1135
58.67	1167
58.68	1162
58.69	1144
58.7	1150
58.71	1109
58.72	1174
58.73	1228
58.74	1238
58.75	1209
58.76	1222
58.77	1253
58.78	1317
58.79	1347
58.8	1336
58.81	1359
58.82	1391
58.83	1411
58.84	1417
58.85	1424
58.86	1468
58.87	1489
58.88	1496
58.89	1527
58.9	1591
58.91	1634
58.92	1708
58.93	1842
58.94	2018
58.95	2161
58.96	2298
58.97	2537
58.98	2810
58.99	3097
59	3564
59.01	4128
59.02	4755
59.03	5483
59.04	6270
59.05	7294
59.06	8316
59.07	9366
59.08	10230
59.09	10750
59.1	10860
59.11	10800
59.12	10306
59.13	9653
59.14	8866
59.15	8255
59.16	7640
59.17	7195
59.18	6817
59.19	6726
59.2	6671
59.21	6893
59.22	7120
59.23	7398
59.24	7405
59.25	7527
59.26	7581
59.27	7349
59.28	6989
59.29	6514
59.3	6094
59.31	5573
59.32	5078
59.33	4678
59.34	4239
59.35	3882
59.36	3652
59.37	3409
59.38	3219
59.39	3072
59.4	2925
59.41	2806
59.42	2705
59.43	2612
59.44	2553
59.45	2451
59.46	2419
59.47	2355
59.48	2209
59.49	2202
59.5	2100
59.51	2091
59.52	2021
59.53	1975
59.54	1948
59.55	1924
59.56	1902
59.57	1890
59.58	1855
59.59	1786
59.6	1710
59.61	1702
59.62	1782
59.63	1694
59.64	1685
59.65	1699
59.66	1674
59.67	1710
59.68	1729
59.69	1739
59.7	1639
59.71	1752
59.72	1787
59.73	1867
59.74	1917
59.75	1895
59.76	2051
59.77	2165
59.78	2230
59.79	2337
59.8	2593
59.81	2744
59.82	2834
59.83	2887
59.84	2886
59.85	2922
59.86	2852
59.87	2745
59.88	2642
59.89	2448
59.9	2370
59.91	2196
59.92	2165
59.93	1981
59.94	1946
59.95	1962
59.96	1924
59.97	1894
59.98	1986
59.99	2043
60	1969
60.01	1959
60.02	1998
60.03	1941
60.04	1774
60.05	1699
60.06	1595
60.07	1512
60.08	1387
60.09	1320
60.1	1228
60.11	1216
60.12	1139
60.13	1109
60.14	1121
60.15	1087
60.16	1035
60.17	1057
60.18	1047
60.19	988
60.2	991
60.21	995
60.22	987
60.23	960
60.24	962
60.25	982
60.26	951
60.27	919
60.28	873
60.29	876
60.3	882
60.31	910
60.32	929
60.33	857
60.34	873
60.35	889
60.36	895
60.37	865
60.38	826
60.39	861
60.4	861
60.41	841
60.42	818
60.43	825
60.44	832
60.45	841
60.46	843
60.47	847
60.48	844
60.49	855
60.5	865
60.51	849
60.52	803
60.53	811
60.54	835
60.55	839
60.56	791
60.57	804
60.58	829
60.59	797
60.6	795
60.61	775
60.62	764
60.63	775
60.64	783
60.65	821
60.66	830
60.67	829
60.68	830
60.69	839
60.7	808
60.71	816
60.72	813
60.73	844
60.74	934
60.75	882
60.76	866
60.77	817
60.78	861
60.79	892
60.8	882
60.81	918
60.82	900
60.83	911
60.84	923
60.85	920
60.86	895
60.87	875
60.88	890
60.89	880
60.9	831
60.91	851
60.92	863
60.93	850
60.94	863
60.95	850
60.96	832
60.97	809
60.98	856
60.99	855
61	849
61.01	825
61.02	815
61.03	820
61.04	819
61.05	796
61.06	829
61.07	814
61.08	802
61.09	767
61.1	770
61.11	754
61.12	773
61.13	801
61.14	808
61.15	730
61.16	763
61.17	765
61.18	761
61.19	777
61.2	770
61.21	762
61.22	750
61.23	775
61.24	768
61.25	767
61.26	759
61.27	783
61.28	795
61.29	799
61.3	784
61.31	768
61.32	752
61.33	777
61.34	754
61.35	785
61.36	791
61.37	757
61.38	793
61.39	782
61.4	809
61.41	774
61.42	783
61.43	773
61.44	785
61.45	778
61.46	822
61.47	812
61.48	806
61.49	806
61.5	828
61.51	835
61.52	807
61.53	776
61.54	779
61.55	813
61.56	807
61.57	826
61.58	785
61.59	800
61.6	834
61.61	806
61.62	817
61.63	847
61.64	807
61.65	826
61.66	855
61.67	809
61.68	761
61.69	805
61.7	829
61.71	845
61.72	816
61.73	823
61.74	816
61.75	799
61.76	798
61.77	789
61.78	805
61.79	770
61.8	834
61.81	820
61.82	814
61.83	803
61.84	798
61.85	786
61.86	771
61.87	792
61.88	778
61.89	788
61.9	775
61.91	790
61.92	808
61.93	817
61.94	811
61.95	801
61.96	817
61.97	772
61.98	759
61.99	798
62	805
62.01	819
62.02	803
62.03	819
62.04	815
62.05	803
62.06	862
62.07	865
62.08	870
62.09	887
62.1	903
62.11	927
62.12	950
62.13	961
62.14	947
62.15	933
62.16	912
62.17	972
62.18	978
62.19	950
62.2	971
62.21	971
62.22	960
62.23	993
62.24	944
62.25	989
62.26	964
62.27	964
62.28	945
62.29	984
62.3	1016
62.31	1015
62.32	1059
62.33	1066
62.34	1047
62.35	1030
62.36	1069
62.37	1017
62.38	987
62.39	956
62.4	957
62.41	923
62.42	921
62.43	964
62.44	959
62.45	934
62.46	910
62.47	875
62.48	893
62.49	912
62.5	897
62.51	873
62.52	870
62.53	865
62.54	880
62.55	852
62.56	846
62.57	834
62.58	831
62.59	845
62.6	813
62.61	793
62.62	793
62.63	748
62.64	735
62.65	791
62.66	814
62.67	743
62.68	718
62.69	758
62.7	715
62.71	729
62.72	730
62.73	720
62.74	720
62.75	752
62.76	747
62.77	764
62.78	758
62.79	727
62.8	751
62.81	738
62.82	720
62.83	710
62.84	755
62.85	742
62.86	710
62.87	719
62.88	735
62.89	771
62.9	738
62.91	714
62.92	738
62.93	755
62.94	709
62.95	728
62.96	765
62.97	759
62.98	776
62.99	776
63	755
63.01	741
63.02	744
63.03	774
63.04	753
63.05	759
63.06	750
63.07	757
63.08	774
63.09	814
63.1	782
63.11	794
63.12	820
63.13	778
63.14	797
63.15	844
63.16	881
63.17	877
63.18	875
63.19	910
63.2	964
63.21	924
63.22	886
63.23	895
63.24	915
63.25	915
63.26	904
63.27	880
63.28	898
63.29	884
63.3	877
63.31	878
63.32	849
63.33	854
63.34	887
63.35	889
63.36	893
63.37	877
63.38	857
63.39	842
63.4	840
63.41	843
63.42	819
63.43	808
63.44	823
63.45	845
63.46	817
63.47	834
63.48	799
63.49	725
63.5	756
63.51	753
63.52	741
63.53	749
63.54	804
63.55	776
63.56	763
63.57	769
63.58	783
63.59	774
63.6	736
63.61	723
63.62	708
63.63	675
63.64	719
63.65	717
63.66	700
63.67	692
63.68	716
63.69	739
63.7	724
63.71	751
63.72	702
63.73	751
63.74	709
63.75	694
63.76	703
63.77	697
63.78	711
63.79	706
63.8	706
63.81	734
63.82	706
63.83	680
63.84	693
63.85	685
63.86	691
63.87	683
63.88	684
63.89	705
63.9	697
63.91	725
63.92	684
63.93	684
63.94	696
63.95	664
63.96	717
63.97	742
63.98	694
63.99	672
64	695
64.01	722
64.02	711
64.03	663
64.04	663
64.05	690
64.06	691
64.07	708
64.08	670
64.09	700
64.1	714
64.11	655
64.12	686
64.13	672
64.14	691
64.15	716
64.16	713
64.17	697
64.18	707
64.19	718
64.2	689
64.21	683
64.22	702
64.23	703
64.24	695
64.25	681
64.26	708
64.27	676
64.28	674
64.29	694
64.3	675
64.31	673
64.32	654
64.33	687
64.34	702
64.35	677
64.36	701
64.37	716
64.38	703
64.39	744
64.4	705
64.41	705
64.42	680
64.43	691
64.44	712
64.45	736
64.46	735
64.47	710
64.48	701
64.49	711
64.5	702
64.51	698
64.52	712
64.53	692
64.54	733
64.55	712
64.56	682
64.57	699
64.58	725
64.59	742
64.6	732
64.61	735
64.62	697
64.63	712
64.64	723
64.65	675
64.66	656
64.67	660
64.68	672
64.69	722
64.7	732
64.71	728
64.72	719
64.73	699
64.74	718
64.75	680
64.76	688
64.77	711
64.78	699
64.79	695
64.8	700
64.81	700
64.82	686
64.83	717
64.84	740
64.85	694
64.86	682
64.87	690
64.88	673
64.89	697
64.9	701
64.91	657
64.92	702
64.93	705
64.94	647
64.95	681
64.96	731
64.97	685
64.98	704
64.99	682
65	679
65.01	695
65.02	680
65.03	672
65.04	708
65.05	684
65.06	685
65.07	689
65.08	661
65.09	661
65.1	667
65.11	673
65.12	701
65.13	696
65.14	700
65.15	704
65.16	726
65.17	721
65.18	732
65.19	765
65.2	795
65.21	747
65.22	770
65.23	792
65.24	782
65.25	744
65.26	730
65.27	735
65.28	766
65.29	746
65.3	735
65.31	750
65.32	769
65.33	753
65.34	736
65.35	732
65.36	730
65.37	720
65.38	760
65.39	730
65.4	744
65.41	733
65.42	728
65.43	723
65.44	755
65.45	742
65.46	700
65.47	748
65.48	762
65.49	739
65.5	733
65.51	711
65.52	698
65.53	696
65.54	732
65.55	713
65.56	682
65.57	710
65.58	676
65.59	725
65.6	724
65.61	717
65.62	705
65.63	700
65.64	711
65.65	697
65.66	711
65.67	733
65.68	762
65.69	774
65.7	722
65.71	726
65.72	734
65.73	713
65.74	723
65.75	731
65.76	748
65.77	733
65.78	764
65.79	756
65.8	743
65.81	734
65.82	754
65.83	789
65.84	767
65.85	750
65.86	773
65.87	771
65.88	761
65.89	760
65.9	782
65.91	802
65.92	757
65.93	774
65.94	761
65.95	747
65.96	751
65.97	740
65.98	759
65.99	757
66	778
66.01	766
66.02	726
66.03	749
66.04	744
66.05	726
66.06	722
66.07	756
66.08	723
66.09	719
66.1	742
66.11	727
66.12	715
66.13	709
66.14	721
66.15	733
66.16	731
66.17	748
66.18	789
66.19	778
66.2	751
66.21	777
66.22	759
66.23	784
66.24	756
66.25	786
66.26	777
66.27	756
66.28	790
66.29	717
66.3	734
66.31	752
66.32	795
66.33	783
66.34	770
66.35	789
66.36	764
66.37	737
66.38	769
66.39	787
66.4	766
66.41	803
66.42	849
66.43	811
66.44	786
66.45	787
66.46	773
66.47	783
66.48	789
66.49	786
66.5	787
66.51	799
66.52	814
66.53	783
66.54	808
66.55	800
66.56	791
66.57	805
66.58	833
66.59	818
66.6	805
66.61	813
66.62	849
66.63	844
66.64	803
66.65	831
66.66	819
66.67	820
66.68	868
66.69	834
66.7	853
66.71	859
66.72	834
66.73	822
66.74	825
66.75	858
66.76	868
66.77	871
66.78	869
66.79	893
66.8	856
66.81	837
66.82	860
66.83	875
66.84	868
66.85	871
66.86	893
66.87	872
66.88	867
66.89	867
66.9	917
66.91	939
66.92	949
66.93	917
66.94	905
66.95	904
66.96	923
66.97	914
66.98	965
66.99	986
67	986
67.01	987
67.02	991
67.03	1015
67.04	1021
67.05	1039
67.06	1020
67.07	995
67.08	1058
67.09	1055
67.1	1070
67.11	1053
67.12	1095
67.13	1113
67.14	1107
67.15	1122
67.16	1163
67.17	1149
67.18	1138
67.19	1150
67.2	1169
67.21	1178
67.22	1165
67.23	1198
67.24	1254
67.25	1237
67.26	1257
67.27	1333
67.28	1320
67.29	1295
67.3	1305
67.31	1350
67.32	1431
67.33	1463
67.34	1447
67.35	1490
67.36	1509
67.37	1582
67.38	1568
67.39	1591
67.4	1627
67.41	1659
67.42	1680
67.43	1697
67.44	1752
67.45	1795
67.46	1823
67.47	1841
67.48	1855
67.49	1969
67.5	2026
67.51	2040
67.52	2082
67.53	2115
67.54	2136
67.55	2190
67.56	2233
67.57	2254
67.58	2331
67.59	2343
67.6	2435
67.61	2427
67.62	2476
67.63	2521
67.64	2543
67.65	2528
67.66	2554
67.67	2575
67.68	2543
67.69	2570
67.7	2565
67.71	2584
67.72	2571
67.73	2605
67.74	2515
67.75	2569
67.76	2495
67.77	2434
67.78	2419
67.79	2418
67.8	2357
67.81	2333
67.82	2357
67.83	2319
67.84	2283
67.85	2225
67.86	2223
67.87	2217
67.88	2157
67.89	2085
67.9	2062
67.91	1993
67.92	1940
67.93	1959
67.94	1921
67.95	1880
67.96	1829
67.97	1790
67.98	1701
67.99	1664
68	1708
68.01	1641
68.02	1624
68.03	1633
68.04	1587
68.05	1567
68.06	1553
68.07	1502
68.08	1483
68.09	1511
68.1	1470
68.11	1479
68.12	1466
68.13	1447
68.14	1390
68.15	1463
68.16	1409
68.17	1372
68.18	1417
68.19	1468
68.2	1448
68.21	1403
68.22	1396
68.23	1409
68.24	1443
68.25	1434
68.26	1418
68.27	1419
68.28	1433
68.29	1422
68.3	1384
68.31	1313
68.32	1260
68.33	1274
68.34	1251
68.35	1266
68.36	1231
68.37	1189
68.38	1191
68.39	1208
68.4	1203
68.41	1200
68.42	1210
68.43	1182
68.44	1226
68.45	1178
68.46	1162
68.47	1138
68.48	1120
68.49	1125
68.5	1075
68.51	1046
68.52	1052
68.53	1044
68.54	983
68.55	983
68.56	978
68.57	1003
68.58	975
68.59	960
68.6	955
68.61	958
68.62	962
68.63	971
68.64	947
68.65	934
68.66	927
68.67	912
68.68	963
68.69	947
68.7	923
68.71	875
68.72	846
68.73	873
68.74	918
68.75	861
68.76	879
68.77	923
68.78	854
68.79	844
68.8	855
68.81	903
68.82	857
68.83	857
68.84	850
68.85	832
68.86	811
68.87	837
68.88	850
68.89	837
68.9	842
68.91	852
68.92	833
68.93	819
68.94	828
68.95	821
68.96	804
68.97	809
68.98	848
68.99	813
69	829
69.01	865
69.02	831
69.03	808
69.04	831
69.05	854
69.06	859
69.07	808
69.08	801
69.09	829
69.1	797
69.11	803
69.12	817
69.13	806
69.14	820
69.15	814
69.16	826
69.17	841
69.18	850
69.19	852
69.2	817
69.21	844
69.22	859
69.23	830
69.24	805
69.25	772
69.26	806
69.27	851
69.28	825
69.29	818
69.3	813
69.31	850
69.32	835
69.33	822
69.34	847
69.35	849
69.36	830
69.37	831
69.38	857
69.39	863
69.4	805
69.41	808
69.42	831
69.43	848
69.44	852
69.45	871
69.46	891
69.47	892
69.48	874
69.49	863
69.5	877
69.51	921
69.52	948
69.53	933
69.54	933
69.55	945
69.56	962
69.57	940
69.58	971
69.59	985
69.6	931
69.61	934
69.62	939
69.63	935
69.64	952
69.65	980
69.66	1004
69.67	1033
69.68	1042
69.69	1015
69.7	988
69.71	1018
69.72	1007
69.73	977
69.74	985
69.75	1031
69.76	1037
69.77	1034
69.78	1049
69.79	1072
69.8	1025
69.81	1022
69.82	1091
69.83	1121
69.84	1085
69.85	1135
69.86	1141
69.87	1133
69.88	1156
69.89	1147
69.9	1208
69.91	1195
69.92	1175
69.93	1199
69.94	1214
69.95	1200
69.96	1219
69.97	1230
69.98	1214
69.99	1162
70	1179
70.01	1168
70.02	1167
70.03	1224
70.04	1189
70.05	1199
70.06	1234
70.07	1192
70.08	1144
70.09	1150
70.1	1184
70.11	1157
70.12	1152
70.13	1109
70.14	1122
70.15	1106
70.16	1131
70.17	1115
70.18	1073
70.19	1083
70.2	1052
70.21	1079
70.22	1063
70.23	1019
70.24	999
70.25	1016
70.26	981
70.27	993
70.28	967
70.29	997
70.3	974
70.31	963
70.32	980
70.33	947
70.34	916
70.35	906
70.36	890
70.37	902
70.38	896
70.39	879
70.4	885
70.41	879
70.42	851
70.43	815
70.44	778
70.45	803
70.46	865
70.47	843
70.48	830
70.49	815
70.5	825
70.51	832
70.52	809
70.53	797
70.54	802
70.55	821
70.56	779
70.57	759
70.58	788
70.59	766
70.6	763
70.61	765
70.62	784
70.63	761
70.64	750
70.65	751
70.66	747
70.67	721
70.68	749
70.69	714
70.7	727
70.71	742
70.72	779
70.73	746
70.74	744
70.75	739
70.76	742
70.77	704
70.78	731
70.79	721
70.8	720
70.81	719
70.82	728
70.83	692
70.84	695
70.85	709
70.86	712
70.87	703
70.88	695
70.89	662
70.9	673
70.91	704
70.92	684
70.93	700
70.94	715
70.95	702
70.96	683
70.97	697
70.98	687
70.99	684
71	681
71.01	682
71.02	691
71.03	702
71.04	681
71.05	660
71.06	698
71.07	683
71.08	658
71.09	643
71.1	653
71.11	685
71.12	694
71.13	681
71.14	692
71.15	653
71.16	657
71.17	674
71.18	663
71.19	646
71.2	662
71.21	673
71.22	670
71.23	647
71.24	657
71.25	665
71.26	617
71.27	637
71.28	652
71.29	672
71.3	658
71.31	637
71.32	657
71.33	668
71.34	677
71.35	661
71.36	649
71.37	668
71.38	646
71.39	652
71.4	609
71.41	633
71.42	636
71.43	628
71.44	662
71.45	678
71.46	656
71.47	637
71.48	618
71.49	646
71.5	664
71.51	639
71.52	622
71.53	610
71.54	655
71.55	655
71.56	613
71.57	645
71.58	624
71.59	644
71.6	638
71.61	646
71.62	644
71.63	622
71.64	647
71.65	672
71.66	650
71.67	634
71.68	620
71.69	615
71.7	615
71.71	617
71.72	620
71.73	649
71.74	640
71.75	646
71.76	617
71.77	618
71.78	634
71.79	642
71.8	666
71.81	644
71.82	639
71.83	668
71.84	684
71.85	660
71.86	615
71.87	620
71.88	624
71.89	620
71.9	650
71.91	647
71.92	626
71.93	628
71.94	607
71.95	633
71.96	681
71.97	655
71.98	644
71.99	675
72	686
72.01	675
72.02	678
72.03	648
72.04	656
72.05	662
72.06	665
72.07	635
72.08	624
72.09	614
72.1	639
72.11	630
72.12	631
72.13	642
72.14	667
72.15	654
72.16	687
72.17	680
72.18	690
72.19	672
72.2	637
72.21	656
72.22	619
72.23	644
72.24	647
72.25	648
72.26	690
72.27	697
72.28	642
72.29	660
72.3	666
72.31	642
72.32	647
72.33	660
72.34	650
72.35	655
72.36	637
72.37	640
72.38	674
72.39	628
72.4	622
72.41	631
72.42	647
72.43	633
72.44	645
72.45	664
72.46	648
72.47	631
72.48	642
72.49	658
72.5	692
72.51	633
72.52	610
72.53	639
72.54	672
72.55	645
72.56	636
72.57	622
72.58	675
72.59	619
72.6	598
72.61	607
72.62	611
72.63	608
72.64	597
72.65	599
72.66	618
72.67	639
72.68	628
72.69	617
72.7	628
72.71	618
72.72	577
72.73	602
72.74	631
72.75	640
72.76	627
72.77	583
72.78	578
72.79	613
72.8	603
72.81	608
72.82	606
72.83	603
72.84	624
72.85	609
72.86	631
72.87	621
72.88	638
72.89	623
72.9	581
72.91	610
72.92	607
72.93	617
72.94	621
72.95	610
72.96	605
72.97	606
72.98	602
72.99	598
73	608
73.01	628
73.02	621
73.03	616
73.04	618
73.05	593
73.06	609
73.07	610
73.08	608
73.09	605
73.1	604
73.11	607
73.12	607
73.13	599
73.14	616
73.15	618
73.16	598
73.17	625
73.18	617
73.19	597
73.2	588
73.21	640
73.22	636
73.23	627
73.24	598
73.25	605
73.26	629
73.27	581
73.28	632
73.29	567
73.3	626
73.31	667
73.32	666
73.33	647
73.34	621
73.35	590
73.36	585
73.37	618
73.38	619
73.39	595
73.4	614
73.41	642
73.42	625
73.43	616
73.44	651
73.45	671
73.46	630
73.47	599
73.48	605
73.49	630
73.5	623
73.51	595
73.52	635
73.53	622
73.54	623
73.55	613
73.56	606
73.57	617
73.58	601
73.59	609
73.6	627
73.61	604
73.62	619
73.63	602
73.64	614
73.65	629
73.66	635
73.67	632
73.68	621
73.69	649
73.7	661
73.71	626
73.72	655
73.73	649
73.74	638
73.75	621
73.76	619
73.77	621
73.78	633
73.79	633
73.8	615
73.81	626
73.82	648
73.83	653
73.84	642
73.85	620
73.86	639
73.87	654
73.88	639
73.89	640
73.9	653
73.91	659
73.92	632
73.93	631
73.94	654
73.95	644
73.96	646
73.97	641
73.98	668
73.99	651
74	659
74.01	670
74.02	646
74.03	640
74.04	654
74.05	654
74.06	658
74.07	633
74.08	635
74.09	654
74.1	684
74.11	681
74.12	676
74.13	662
74.14	649
74.15	687
74.16	685
74.17	643
74.18	661
74.19	657
74.2	655
74.21	675
74.22	685
74.23	655
74.24	649
74.25	676
74.26	642
74.27	628
74.28	668
74.29	624
74.3	666
74.31	655
74.32	662
74.33	642
74.34	615
74.35	633
74.36	645
74.37	648
74.38	640
74.39	630
74.4	650
74.41	642
74.42	668
74.43	645
74.44	628
74.45	616
74.46	634
74.47	646
74.48	633
74.49	665
74.5	662
74.51	633
74.52	625
74.53	638
74.54	609
74.55	647
74.56	657
74.57	662
74.58	653
74.59	641
74.6	646
74.61	639
74.62	635
74.63	639
74.64	627
74.65	629
74.66	623
74.67	625
74.68	650
74.69	626
74.7	653
74.71	647
74.72	644
74.73	656
74.74	647
74.75	666
74.76	644
74.77	615
74.78	643
74.79	656
74.8	672
74.81	643
74.82	628
74.83	651
74.84	665
74.85	682
74.86	661
74.87	681
74.88	683
74.89	652
74.9	674
74.91	706
74.92	695
74.93	667
74.94	692
74.95	659
74.96	651
74.97	628
74.98	649
74.99	681
75	700
75.01	660
75.02	688
75.03	687
75.04	642
75.05	651
75.06	687
75.07	665
75.08	670
75.09	672
75.1	688
75.11	676
75.12	691
75.13	668
75.14	671
75.15	688
75.16	692
75.17	652
75.18	643
75.19	660
75.2	685
75.21	665
75.22	679
75.23	695
75.24	661
75.25	659
75.26	657
75.27	711
75.28	727
75.29	685
75.3	647
75.31	654
75.32	702
75.33	660
75.34	648
75.35	683
75.36	663
75.37	641
75.38	659
75.39	664
75.4	688
75.41	681
75.42	667
75.43	668
75.44	696
75.45	687
75.46	670
75.47	698
75.48	704
75.49	693
75.5	671
75.51	658
75.52	677
75.53	687
75.54	685
75.55	711
75.56	703
75.57	717
75.58	721
75.59	688
75.6	679
75.61	715
75.62	683
75.63	665
75.64	668
75.65	683
75.66	700
75.67	698
75.68	707
75.69	697
75.7	684
75.71	698
75.72	704
75.73	700
75.74	688
75.75	686
75.76	649
75.77	694
75.78	722
75.79	752
75.8	698
75.81	679
75.82	683
75.83	723
75.84	669
75.85	684
75.86	688
75.87	686
75.88	670
75.89	704
75.9	714
75.91	673
75.92	695
75.93	695
75.94	715
75.95	718
75.96	666
75.97	687
75.98	663
75.99	696
76	694
76.01	704
76.02	690
76.03	681
76.04	720
76.05	694
76.06	732
76.07	698
76.08	706
76.09	708
76.1	703
76.11	695
76.12	716
76.13	716
76.14	727
76.15	696
76.16	726
76.17	748
76.18	737
76.19	721
76.2	750
76.21	762
76.22	752
76.23	737
76.24	738
76.25	711
76.26	711
76.27	729
76.28	728
76.29	706
76.3	717
76.31	728
76.32	724
76.33	739
76.34	723
76.35	737
76.36	734
76.37	735
76.38	753
76.39	711
76.4	722
76.41	767
76.42	715
76.43	734
76.44	736
76.45	754
76.46	754
76.47	711
76.48	736
76.49	767
76.5	742
76.51	733
76.52	750
76.53	742
76.54	755
76.55	750
76.56	703
76.57	733
76.58	742
76.59	742
76.6	716
76.61	736
76.62	737
76.63	721
76.64	758
76.65	719
76.66	730
76.67	736
76.68	734
76.69	730
76.7	681
76.71	713
76.72	731
76.73	736
76.74	731
76.75	697
76.76	726
76.77	753
76.78	726
76.79	698
76.8	751
76.81	765
76.82	770
76.83	747
76.84	752
76.85	692
76.86	705
76.87	704
76.88	697
76.89	736
76.9	735
76.91	705
76.92	718
76.93	741
76.94	731
76.95	734
76.96	742
76.97	745
76.98	766
76.99	751
77	738
77.01	746
77.02	742
77.03	727
77.04	717
77.05	743
77.06	744
77.07	755
77.08	749
77.09	757
77.1	772
77.11	733
77.12	718
77.13	742
77.14	735
77.15	712
77.16	701
77.17	726
77.18	765
77.19	781
77.2	777
77.21	770
77.22	777
77.23	757
77.24	774
77.25	734
77.26	735
77.27	765
77.28	738
77.29	727
77.3	780
77.31	784
77.32	771
77.33	788
77.34	807
77.35	789
77.36	775
77.37	789
77.38	774
77.39	778
77.4	821
77.41	841
77.42	812
77.43	816
77.44	830
77.45	807
77.46	838
77.47	822
77.48	806
77.49	836
77.5	807
77.51	815
77.52	810
77.53	841
77.54	854
77.55	878
77.56	891
77.57	863
77.58	877
77.59	914
77.6	892
77.61	911
77.62	907
77.63	887
77.64	890
77.65	913
77.66	895
77.67	911
77.68	964
77.69	970
77.7	986
77.71	934
77.72	950
77.73	938
77.74	982
77.75	995
77.76	1014
77.77	1039
77.78	1046
77.79	992
77.8	996
77.81	1035
77.82	1066
77.83	1086
77.84	1103
77.85	1105
77.86	1101
77.87	1143
77.88	1168
77.89	1201
77.9	1185
77.91	1191
77.92	1177
77.93	1237
77.94	1254
77.95	1271
77.96	1300
77.97	1311
77.98	1391
77.99	1407
78	1381
78.01	1407
78.02	1525
78.03	1496
78.04	1488
78.05	1578
78.06	1600
78.07	1687
78.08	1698
78.09	1733
78.1	1862
78.11	1873
78.12	1860
78.13	1876
78.14	1909
78.15	1969
78.16	2018
78.17	1986
78.18	1995
78.19	2040
78.2	2001
78.21	2029
78.22	2044
78.23	2016
78.24	1955
78.25	1990
78.26	2032
78.27	2056
78.28	2015
78.29	1973
78.3	1887
78.31	1907
78.32	1843
78.33	1824
78.34	1918
78.35	1900
78.36	1855
78.37	1852
78.38	1837
78.39	1795
78.4	1810
78.41	1765
78.42	1699
78.43	1713
78.44	1690
78.45	1660
78.46	1655
78.47	1639
78.48	1568
78.49	1548
78.5	1517
78.51	1535
78.52	1508
78.53	1455
78.54	1453
78.55	1387
78.56	1405
78.57	1365
78.58	1292
78.59	1280
78.6	1300
78.61	1268
78.62	1243
78.63	1227
78.64	1183
78.65	1166
78.66	1184
78.67	1162
78.68	1132
78.69	1091
78.7	1114
78.71	1047
78.72	1043
78.73	1080
78.74	1054
78.75	998
78.76	991
78.77	995
78.78	1001
78.79	986
78.8	979
78.81	959
78.82	953
78.83	953
78.84	911
78.85	937
78.86	939
78.87	902
78.88	940
78.89	914
78.9	857
78.91	859
78.92	894
78.93	880
78.94	855
78.95	841
78.96	866
78.97	910
78.98	844
78.99	825
79	815
79.01	793
79.02	838
79.03	840
79.04	812
79.05	805
79.06	782
79.07	782
79.08	821
79.09	787
79.1	763
79.11	764
79.12	795
79.13	772
79.14	785
79.15	781
79.16	778
79.17	763
79.18	781
79.19	795
79.2	766
79.21	763
79.22	775
79.23	776
79.24	763
79.25	761
79.26	796
79.27	780
79.28	777
79.29	764
79.3	723
79.31	717
79.32	760
79.33	768
79.34	746
79.35	721
79.36	743
79.37	714
79.38	692
79.39	711
79.4	751
79.41	695
79.42	729
79.43	731
79.44	746
79.45	711
79.46	714
79.47	715
79.48	736
79.49	732
79.5	708
79.51	667
79.52	674
79.53	705
79.54	715
79.55	729
79.56	712
79.57	735
79.58	734
79.59	745
79.6	757
79.61	705
79.62	700
79.63	727
79.64	750
79.65	725
79.66	724
79.67	715
79.68	704
79.69	692
79.7	694
79.71	715
79.72	733
79.73	702
79.74	717
79.75	708
79.76	706
79.77	724
79.78	735
79.79	691
79.8	711
79.81	695
79.82	681
79.83	702
79.84	699
79.85	665
79.86	682
79.87	725
79.88	727
79.89	712
79.9	718
79.91	703
79.92	699
79.93	650
79.94	655
79.95	721
79.96	698
79.97	672
79.98	681
79.99	681
80	687
80.01	700
80.02	732
80.03	732
80.04	718
80.05	709
80.06	675
80.07	681
80.08	671
80.09	702
80.1	720
80.11	749
80.12	748
80.13	706
80.14	711
80.15	714
80.16	716
80.17	730
80.18	746
80.19	771
80.2	749
80.21	710
80.22	708
80.23	677
80.24	710
80.25	728
80.26	765
80.27	746
80.28	748
80.29	731
80.3	701
80.31	760
80.32	763
80.33	736
80.34	746
80.35	747
80.36	731
80.37	721
80.38	740
80.39	751
80.4	761
80.41	734
80.42	727
80.43	741
80.44	736
80.45	752
80.46	772
80.47	749
80.48	767
80.49	758
80.5	749
80.51	746
80.52	741
80.53	721
80.54	730
80.55	736
80.56	752
80.57	745
80.58	765
80.59	754
80.6	748
80.61	735
80.62	731
80.63	755
80.64	764
80.65	739
80.66	758
80.67	785
80.68	773
80.69	735
80.7	731
80.71	721
80.72	730
80.73	765
80.74	742
80.75	737
80.76	734
80.77	756
80.78	747
80.79	744
80.8	746
80.81	757
80.82	697
80.83	719
80.84	746
80.85	725
80.86	679
80.87	678
80.88	718
80.89	705
80.9	705
80.91	679
80.92	689
80.93	685
80.94	704
80.95	685
80.96	697
80.97	679
80.98	690
80.99	719
81	710
81.01	675
81.02	693
81.03	708
81.04	681
81.05	681
81.06	714
81.07	692
81.08	704
81.09	653
81.1	672
81.11	696
81.12	703
81.13	690
81.14	717
81.15	678
81.16	698
81.17	687
81.18	665
81.19	658
81.2	687
81.21	710
81.22	710
81.23	684
81.24	685
81.25	666
81.26	686
81.27	678
81.28	691
81.29	689
81.3	646
81.31	688
81.32	681
81.33	647
81.34	669
81.35	676
81.36	637
81.37	672
81.38	674
81.39	680
81.4	688
81.41	678
81.42	698
81.43	659
81.44	669
81.45	684
81.46	653
81.47	672
81.48	671
81.49	688
81.5	668
81.51	705
81.52	661
81.53	650
81.54	672
81.55	668
81.56	671
81.57	651
81.58	705
81.59	726
81.6	734
81.61	707
81.62	692
81.63	712
81.64	738
81.65	711
81.66	724
81.67	724
81.68	692
81.69	696
81.7	697
81.71	707
81.72	731
81.73	720
81.74	682
81.75	714
81.76	715
81.77	704
81.78	714
81.79	768
81.8	754
81.81	715
81.82	707
81.83	725
81.84	725
81.85	730
81.86	744
81.87	734
81.88	736
81.89	716
81.9	759
81.91	733
81.92	724
81.93	754
81.94	749
81.95	763
81.96	766
81.97	766
81.98	747
81.99	779
82	777
82.01	797
82.02	783
82.03	803
82.04	787
82.05	790
82.06	773
82.07	807
82.08	860
82.09	847
82.1	892
82.11	966
82.12	979
82.13	1080
82.14	1176
82.15	1176
82.16	1230
82.17	1217
82.18	1311
82.19	1315
82.2	1362
82.21	1370
82.22	1341
82.23	1317
82.24	1277
82.25	1233
82.26	1156
82.27	1178
82.28	1136
82.29	1074
82.3	1041
82.31	1030
82.32	1028
82.33	990
82.34	989
82.35	1008
82.36	1020
82.37	1062
82.38	1046
82.39	1081
82.4	1067
82.41	1148
82.42	1170
82.43	1184
82.44	1169
82.45	1132
82.46	1146
82.47	1166
82.48	1148
82.49	1114
82.5	1084
82.51	1065
82.52	1044
82.53	1025
82.54	996
82.55	971
82.56	1002
82.57	974
82.58	947
82.59	965
82.6	948
82.61	907
82.62	927
82.63	901
82.64	902
82.65	918
82.66	879
82.67	873
82.68	881
82.69	906
82.7	933
82.71	929
82.72	924
82.73	896
82.74	903
82.75	904
82.76	946
82.77	951
82.78	935
82.79	887
82.8	900
82.81	915
82.82	883
82.83	897
82.84	896
82.85	885
82.86	878
82.87	912
82.88	944
82.89	947
82.9	927
82.91	915
82.92	928
82.93	935
82.94	893
82.95	910
82.96	926
82.97	916
82.98	912
82.99	905
83	946
83.01	958
83.02	979
83.03	958
83.04	967
83.05	960
83.06	946
83.07	923
83.08	956
83.09	994
83.1	994
83.11	954
83.12	944
83.13	987
83.14	1027
83.15	1035
83.16	992
83.17	1000
83.18	988
83.19	1016
83.2	990
83.21	1069
83.22	1059
83.23	1038
83.24	1046
83.25	991
83.26	1011
83.27	1078
83.28	1073
83.29	1101
83.3	1113
83.31	1107
83.32	1148
83.33	1140
83.34	1151
83.35	1130
83.36	1156
83.37	1148
83.38	1182
83.39	1215
83.4	1228
83.41	1238
83.42	1240
83.43	1206
83.44	1251
83.45	1237
83.46	1274
83.47	1323
83.48	1321
83.49	1320
83.5	1334
83.51	1339
83.52	1355
83.53	1332
83.54	1318
83.55	1320
83.56	1317
83.57	1341
83.58	1339
83.59	1417
83.6	1406
83.61	1342
83.62	1401
83.63	1342
83.64	1302
83.65	1365
83.66	1389
83.67	1350
83.68	1348
83.69	1358
83.7	1358
83.71	1373
83.72	1319
83.73	1314
83.74	1319
83.75	1288
83.76	1274
83.77	1317
83.78	1277
83.79	1311
83.8	1295
83.81	1272
83.82	1297
83.83	1235
83.84	1255
83.85	1267
83.86	1215
83.87	1216
83.88	1182
83.89	1216
83.9	1256
83.91	1224
83.92	1184
83.93	1156
83.94	1201
83.95	1181
83.96	1157
83.97	1114
83.98	1091
83.99	1096
84	1082
84.01	1046
84.02	1055
84.03	1049
84.04	1000
84.05	1065
84.06	1064
84.07	1024
84.08	1018
84.09	1049
84.1	1032
84.11	1003
84.12	989
84.13	980
84.14	984
84.15	961
84.16	974
84.17	950
84.18	917
84.19	959
84.2	975
84.21	959
84.22	955
84.23	915
84.24	893
84.25	935
84.26	932
84.27	935
84.28	957
84.29	898
84.3	862
84.31	878
84.32	918
84.33	884
84.34	880
84.35	890
84.36	844
84.37	832
84.38	852
84.39	834
84.4	831
84.41	833
84.42	843
84.43	843
84.44	854
84.45	860
84.46	843
84.47	779
84.48	767
84.49	776
84.5	829
84.51	815
84.52	821
84.53	825
84.54	829
84.55	782
84.56	785
84.57	788
84.58	767
84.59	793
84.6	813
84.61	807
84.62	788
84.63	812
84.64	824
84.65	795
84.66	818
84.67	808
84.68	802
84.69	796
84.7	794
84.71	789
84.72	815
84.73	836
84.74	817
84.75	752
84.76	770
84.77	779
84.78	784
84.79	779
84.8	768
84.81	786
84.82	795
84.83	780
84.84	807
84.85	814
84.86	785
84.87	739
84.88	742
84.89	736
84.9	792
84.91	743
84.92	724
84.93	739
84.94	772
84.95	746
84.96	724
84.97	742
84.98	754
84.99	756
85	746
85.01	745
85.02	729
85.03	736
85.04	764
85.05	768
85.06	750
85.07	736
85.08	709
85.09	719
85.1	698
85.11	704
85.12	694
85.13	716
85.14	735
85.15	700
85.16	701
85.17	675
85.18	717
85.19	740
85.2	700
85.21	702
85.22	697
85.23	712
85.24	718
85.25	697
85.26	700
85.27	745
85.28	698
85.29	715
85.3	688
85.31	715
85.32	752
85.33	728
85.34	723
85.35	704
85.36	728
85.37	761
85.38	769
85.39	755
85.4	740
85.41	729
85.42	753
85.43	746
85.44	731
85.45	742
85.46	762
85.47	782
85.48	757
85.49	746
85.5	708
85.51	709
85.52	710
85.53	725
85.54	719
85.55	714
85.56	726
85.57	717
85.58	702
85.59	712
85.6	706
85.61	696
85.62	674
85.63	659
85.64	689
85.65	673
85.66	659
85.67	682
85.68	681
85.69	704
85.7	708
85.71	707
85.72	701
85.73	681
85.74	700
85.75	687
85.76	653
85.77	676
85.78	693
85.79	701
85.8	687
85.81	710
85.82	682
85.83	687
85.84	691
85.85	650
85.86	682
85.87	678
85.88	671
85.89	716
85.9	710
85.91	704
85.92	668
85.93	679
85.94	700
85.95	665
85.96	628
85.97	656
85.98	653
85.99	671
86	672
86.01	707
86.02	681
86.03	653
86.04	682
86.05	690
86.06	666
86.07	660
86.08	671
86.09	657
86.1	686
86.11	686
86.12	678
86.13	657
86.14	661
86.15	671
86.16	645
86.17	669
86.18	672
86.19	670
86.2	669
86.21	717
86.22	715
86.23	700
86.24	696
86.25	691
86.26	693
86.27	703
86.28	709
86.29	691
86.3	713
86.31	692
86.32	714
86.33	725
86.34	702
86.35	697
86.36	730
86.37	728
86.38	768
86.39	789
86.4	769
86.41	779
86.42	788
86.43	743
86.44	756
86.45	783
86.46	787
86.47	747
86.48	730
86.49	761
86.5	776
86.51	766
86.52	752
86.53	739
86.54	748
86.55	743
86.56	748
86.57	757
86.58	803
86.59	790
86.6	791
86.61	784
86.62	756
86.63	746
86.64	799
86.65	757
86.66	762
86.67	781
86.68	794
86.69	807
86.7	791
86.71	779
86.72	750
86.73	753
86.74	752
86.75	760
86.76	756
86.77	738
86.78	743
86.79	756
86.8	757
86.81	708
86.82	775
86.83	747
86.84	769
86.85	734
86.86	739
86.87	740
86.88	742
86.89	743
86.9	745
86.91	723
86.92	717
86.93	737
86.94	744
86.95	757
86.96	749
86.97	762
86.98	751
86.99	729
87	715
87.01	760
87.02	722
87.03	748
87.04	717
87.05	713
87.06	740
87.07	750
87.08	749
87.09	737
87.1	763
87.11	776
87.12	755
87.13	769
87.14	777
87.15	777
87.16	786
87.17	758
87.18	768
87.19	799
87.2	795
87.21	781
87.22	766
87.23	764
87.24	759
87.25	783
87.26	759
87.27	766
87.28	750
87.29	749
87.3	761
87.31	758
87.32	766
87.33	775
87.34	772
87.35	737
87.36	732
87.37	746
87.38	762
87.39	770
87.4	755
87.41	756
87.42	767
87.43	782
87.44	797
87.45	764
87.46	785
87.47	759
87.48	753
87.49	720
87.5	745
87.51	758
87.52	757
87.53	771
87.54	749
87.55	739
87.56	730
87.57	737
87.58	730
87.59	747
87.6	760
87.61	711
87.62	712
87.63	746
87.64	726
87.65	737
87.66	777
87.67	767
87.68	744
87.69	682
87.7	700
87.71	725
87.72	749
87.73	723
87.74	720
87.75	706
87.76	688
87.77	689
87.78	708
87.79	730
87.8	694
87.81	691
87.82	690
87.83	718
87.84	673
87.85	730
87.86	704
87.87	721
87.88	683
87.89	677
87.9	691
87.91	723
87.92	695
87.93	672
87.94	685
87.95	701
87.96	693
87.97	696
87.98	698
87.99	690
88	693
88.01	696
88.02	711
88.03	671
88.04	668
88.05	654
88.06	699
88.07	711
88.08	734
88.09	722
88.1	704
88.11	704
88.12	686
88.13	691
88.14	702
88.15	720
88.16	718
88.17	733
88.18	733
88.19	721
88.2	708
88.21	712
88.22	696
88.23	686
88.24	714
88.25	688
88.26	722
88.27	708
88.28	694
88.29	696
88.3	710
88.31	717
88.32	659
88.33	652
88.34	694
88.35	694
88.36	686
88.37	697
88.38	682
88.39	670
88.4	676
88.41	702
88.42	699
88.43	699
88.44	680
88.45	653
88.46	689
88.47	678
88.48	706
88.49	708
88.5	698
88.51	680
88.52	703
88.53	710
88.54	670
88.55	660
88.56	657
88.57	675
88.58	662
88.59	671
88.6	680
88.61	682
88.62	692
88.63	688
88.64	661
88.65	698
88.66	693
88.67	645
88.68	724
88.69	700
88.7	713
88.71	678
88.72	672
88.73	695
88.74	699
88.75	715
88.76	703
88.77	696
88.78	716
88.79	689
88.8	700
88.81	700
88.82	668
88.83	702
88.84	717
88.85	732
88.86	700
88.87	679
88.88	639
88.89	678
88.9	717
88.91	725
88.92	729
88.93	717
88.94	706
88.95	718
88.96	706
88.97	740
88.98	699
88.99	667
89	676
89.01	690
89.02	715
89.03	700
89.04	709
89.05	738
89.06	711
89.07	721
89.08	738
89.09	732
89.1	710
89.11	737
89.12	718
89.13	743
89.14	709
89.15	736
89.16	717
89.17	742
89.18	771
89.19	731
89.2	724
89.21	722
89.22	752
89.23	779
89.24	801
89.25	771
89.26	769
89.27	811
89.28	790
89.29	788
89.3	803
89.31	814
89.32	766
89.33	766
89.34	771
89.35	771
89.36	775
89.37	822
89.38	828
89.39	813
89.4	868
89.41	837
89.42	833
89.43	869
89.44	867
89.45	877
89.46	855
89.47	835
89.48	830
89.49	854
89.5	875
89.51	870
89.52	887
89.53	900
89.54	845
89.55	847
89.56	927
89.57	937
89.58	909
89.59	922
89.6	916
89.61	910
89.62	907
89.63	919
89.64	897
89.65	940
89.66	942
89.67	946
89.68	938
89.69	960
89.7	989
89.71	1003
89.72	969
89.73	957
89.74	957
89.75	1024
89.76	1054
89.77	1063
89.78	1014
89.79	998
89.8	1052
89.81	1076
89.82	1039
89.83	1034
89.84	1062
89.85	1081
89.86	1057
89.87	1072
89.88	1058
89.89	1046
89.9	1055
89.91	994
89.92	971
89.93	1005
89.94	1008
89.95	1036
89.96	1018
89.97	971
89.98	968
89.99	932
90	1000